File name	 Run No	  Mean Incidence (deg)	  Amplitude (deg)	  Oscillation Freq. (Hz)	  Reynolds No.	 Mach No.	 Reduced Frequency 
11011962	 11962	  10	  4	  0.233	  1488300	 0.11919	 0.0097753 
11011972	 11972	  10	  6	  0.233	  1483900	 0.11919	 0.0097638 
11011982	 11982	  10	  8	  0.233	  1478800	 0.11919	 0.0097507 
11011992	 11992	  10	  10	  0.233	  1476900	 0.11919	 0.0097458 
11012002	 12002	  10	  4	  0.582	  1449200	 0.11756	 0.024632 
11012012	 12012	  10	  6	  0.582	  1447300	 0.11756	 0.02462 
11012022	 12022	  10	  8	  0.582	  1447300	 0.11756	 0.02462 
11012032	 12032	  10	  10	  0.582	  1446100	 0.11756	 0.024612 
11012052	 12052	  10	  4	  1.165	  1422400	 0.11514	 0.050386 
11012062	 12062	  10	  6	  1.165	  1417500	 0.11514	 0.050319 
11012072	 12072	  10	  8	  1.165	  1415700	 0.11514	 0.050294 
11012082	 12082	  10	  10	  1.165	  1414500	 0.11514	 0.050277 
11012092	 12092	  10	  4	  1.747	  1455600	 0.11849	 0.073263 
11012102	 12102	  10	  6	  1.747	  1453800	 0.11849	 0.073227 
11012112	 12112	  10	  8	  1.747	  1452500	 0.11849	 0.073202 
11012122	 12122	  10	  10	  1.747	  1451300	 0.11849	 0.073178 
11012132	 12132	  10	  4	  2.33	  1433700	 0.11685	 0.099031 
11012142	 12142	  10	  6	  2.33	  1432500	 0.11685	 0.098998 
11012152	 12152	  10	  8	  2.33	  1431300	 0.11685	 0.098965 
11012162	 12162	  10	  10	  2.33	  1430100	 0.11685	 0.098932 
11012172	 12172	  10	  4	  2.912	  1435700	 0.11686	 0.12382 
11012182	 12182	  10	  6	  2.912	  1432600	 0.11686	 0.12371 
11012192	 12192	  10	  8	  2.912	  1431400	 0.11686	 0.12367 
11012202	 12202	  10	  10	  2.912	  1430200	 0.11686	 0.12363 
11012212	 12212	  10	  4	  3.496	  1431700	 0.11664	 0.14888 
11012222	 12222	  10	  6	  3.496	  1431100	 0.11664	 0.14886 
11012232	 12232	  10	  8	  3.496	  1429900	 0.11664	 0.14881 
11012242	 12242	  10	  10	  3.496	  1429300	 0.11664	 0.14878 
11012252	 12252	  10	  4	  4.077	  1431000	 0.11638	 0.17412 
11012262	 12262	  10	  6	  4.077	  1428600	 0.11638	 0.17401 
11012272	 12272	  10	  8	  4.077	  1427400	 0.11638	 0.17395 
11012282	 12282	  10	  10	  4.077	  1426200	 0.11638	 0.17389 
11012302	 12302	  4	  10	  0.233	  1429000	 0.11617	 0.0099713 
11012312	 12312	  6	  10	  0.233	  1424100	 0.11617	 0.009958 
11012322	 12322	  8	  10	  0.233	  1421700	 0.11617	 0.0099514 
11012332	 12332	  15	  10	  0.233	  1419300	 0.11617	 0.0099448 
11012342	 12342	  20	  10	  0.233	  1417500	 0.11617	 0.0099399 
11012352	 12352	  4	  10	  0.582	  1486000	 0.11782	 0.02476 
11012362	 12362	  6	  10	  0.582	  1483400	 0.11782	 0.024744 
11012372	 12372	  8	  10	  0.582	  1482800	 0.11782	 0.024739 
11012382	 12382	  15	  10	  0.582	  1481500	 0.11782	 0.024731 
11012392	 12392	  20	  10	  0.582	  1479600	 0.11782	 0.024719 
11012402	 12402	  4	  10	  1.165	  1476100	 0.11734	 0.049715 
11012412	 12412	  6	  10	  1.165	  1473600	 0.11734	 0.049682 
11012422	 12422	  8	  10	  1.165	  1472300	 0.11734	 0.049665 
11012432	 12432	  15	  10	  1.165	  1471000	 0.11734	 0.049648 
11012442	 12442	  20	  10	  1.165	  1469700	 0.11734	 0.049632 
11012622	 12622	  4	  10	  1.747	  1463500	 0.11628	 0.07524 
11012632	 12632	  6	  10	  1.747	  1462200	 0.11628	 0.075215 
11012642	 12642	  8	  10	  1.747	  1460900	 0.11628	 0.075189 
11012652	 12652	  15	  10	  1.747	  1458400	 0.11628	 0.075139 
11012662	 12662	  20	  10	  1.747	  1457200	 0.11628	 0.075113 
11012672	 12672	  4	  10	  2.33	  1460000	 0.11595	 0.10065 
11012682	 12682	  6	  10	  2.33	  1456800	 0.11595	 0.10057 
11012692	 12692	  8	  10	  2.33	  1454900	 0.11595	 0.10052 
11012702	 12702	  15	  10	  2.33	  1453700	 0.11595	 0.10048 
11012712	 12712	  20	  10	  2.33	  1452400	 0.11595	 0.10045 
11012722	 12722	  4	  10	  2.912	  1467500	 0.11701	 0.12447 
11012732	 12732	  6	  10	  2.912	  1465000	 0.11701	 0.12439 
11012742	 12742	  8	  10	  2.912	  1463700	 0.11701	 0.12435 
11012752	 12752	  15	  10	  2.912	  1462400	 0.11701	 0.1243 
11012762	 12762	  20	  10	  2.912	  1460600	 0.11701	 0.12424 
11012772	 12772	  4	  10	  3.496	  1449000	 0.11534	 0.1517 
11012782	 12782	  6	  10	  3.496	  1445900	 0.11534	 0.15157 
11012792	 12792	  8	  10	  3.496	  1444000	 0.11534	 0.1515 
11012802	 12802	  15	  10	  3.496	  1442800	 0.11534	 0.15145 
11012812	 12812	  20	  10	  3.496	  1442200	 0.11534	 0.15142 
11012822	 12822	  4	  10	  4.077	  1468300	 0.11743	 0.17344 
11012832	 12832	  6	  10	  4.077	  1465800	 0.11743	 0.17332 
11012842	 12842	  8	  10	  4.077	  1465200	 0.11743	 0.17329 
11012852	 12852	  15	  10	  4.077	  1463300	 0.11743	 0.17321 
11012862	 12862	  20	  10	  4.077	  1462700	 0.11743	 0.17318 
11012891	 12891	  3	  8	  0.233	  1453700	 0.11606	 0.010036 
11012901	 12901	  4	  8	  0.233	  1450500	 0.11606	 0.010028 
11012911	 12911	  5	  8	  0.233	  1448100	 0.11606	 0.010021 
11012921	 12921	  6	  8	  0.233	  1442500	 0.11606	 0.010006 
11012931	 12931	  7	  8	  0.233	  1441200	 0.11606	 0.010002 
11012941	 12941	  8	  8	  0.233	  1439400	 0.11606	 0.0099974 
11012951	 12951	  9	  8	  0.233	  1438200	 0.11606	 0.0099941 
11012961	 12961	  11	  8	  0.233	  1436300	 0.11606	 0.0099891 
11012981	 12981	  12	  8	  0.233	  1448500	 0.11639	 0.010016 
11012991	 12991	  13	  8	  0.233	  1443500	 0.11639	 0.010002 
11013001	 13001	  14	  8	  0.233	  1440400	 0.11639	 0.0099936 
11013011	 13011	  15	  8	  0.233	  1438600	 0.11639	 0.0099886 
11013021	 13021	  16	  8	  0.233	  1436100	 0.11639	 0.0099819 
11013031	 13031	  17	  8	  0.233	  1434300	 0.11639	 0.0099769 
11013041	 13041	  20	  8	  0.233	  1432400	 0.11639	 0.0099719 
11013051	 13051	  3	  8	  0.582	  1423800	 0.1153	 0.02519 
11013061	 13061	  4	  8	  0.582	  1421400	 0.1153	 0.025173 
11013071	 13071	  5	  8	  0.582	  1419000	 0.1153	 0.025157 
11013081	 13081	  6	  8	  0.582	  1418300	 0.1153	 0.025152 
11013091	 13091	  7	  8	  0.582	  1417100	 0.1153	 0.025144 
11013101	 13101	  8	  8	  0.582	  1416500	 0.1153	 0.02514 
11013111	 13111	  9	  8	  0.582	  1415900	 0.1153	 0.025136 
11013121	 13121	  11	  8	  0.582	  1414700	 0.1153	 0.025127 
11013131	 13131	  12	  8	  0.582	  1428600	 0.11609	 0.024986 
11013141	 13141	  13	  8	  0.582	  1426200	 0.11609	 0.02497 
11013151	 13151	  14	  8	  0.582	  1424300	 0.11609	 0.024957 
11013161	 13161	  15	  8	  0.582	  1422500	 0.11609	 0.024945 
11013171	 13171	  16	  8	  0.582	  1421900	 0.11609	 0.024941 
11013181	 13181	  17	  8	  0.582	  1421300	 0.11609	 0.024937 
11013191	 13191	  20	  8	  0.582	  1420100	 0.11609	 0.024928 
11013211	 13211	  3	  8	  1.165	  1450200	 0.11774	 0.049494 
11013221	 13221	  4	  8	  1.165	  1445200	 0.11774	 0.049427 
11013231	 13231	  5	  8	  1.165	  1442700	 0.11774	 0.049394 
11013241	 13241	  6	  8	  1.165	  1442100	 0.11774	 0.049386 
11013251	 13251	  7	  8	  1.165	  1440800	 0.11774	 0.049369 
11013261	 13261	  8	  8	  1.165	  1440200	 0.11774	 0.049361 
11013271	 13271	  9	  8	  1.165	  1439000	 0.11774	 0.049344 
11013281	 13281	  11	  8	  1.165	  1438400	 0.11774	 0.049336 
11013291	 13291	  12	  8	  1.165	  1405600	 0.11487	 0.050605 
11013301	 13301	  13	  8	  1.165	  1402600	 0.11487	 0.050563 
11013311	 13311	  14	  8	  1.165	  1401400	 0.11487	 0.050546 
11013321	 13321	  15	  8	  1.165	  1400200	 0.11487	 0.050529 
11013331	 13331	  16	  8	  1.165	  1399000	 0.11487	 0.050512 
11013341	 13341	  17	  8	  1.165	  1397800	 0.11487	 0.050495 
11013351	 13351	  20	  8	  1.165	  1397200	 0.11487	 0.050487 
11013371	 13371	  3	  8	  1.747	  1456500	 0.11789	 0.074176 
11013381	 13381	  4	  8	  1.747	  1453900	 0.11789	 0.074126 
11013391	 13391	  5	  8	  1.747	  1452100	 0.11789	 0.074088 
11013401	 13401	  6	  8	  1.747	  1450800	 0.11789	 0.074063 
11013411	 13411	  7	  8	  1.747	  1449600	 0.11789	 0.074038 
11013421	 13421	  8	  8	  1.747	  1448900	 0.11789	 0.074026 
11013431	 13431	  9	  8	  1.747	  1447700	 0.11789	 0.074001 
11013441	 13441	  11	  8	  1.747	  1446400	 0.11789	 0.073976 
11013451	 13451	  12	  8	  1.747	  1407200	 0.11455	 0.076173 
11013461	 13461	  13	  8	  1.747	  1404800	 0.11455	 0.076122 
11013471	 13471	  15	  8	  1.747	  1401800	 0.11455	 0.076059 
11013491	 13491	  16	  8	  1.747	  1400600	 0.11455	 0.076033 
11013501	 13501	  17	  8	  1.747	  1399400	 0.11455	 0.076008 
11013511	 13511	  20	  8	  1.747	  1398800	 0.11455	 0.075995 
11013521	 13521	  3	  8	  2.33	  1420100	 0.11559	 0.10068 
11013531	 13531	  4	  8	  2.33	  1417000	 0.11559	 0.10059 
11013541	 13541	  5	  8	  2.33	  1415800	 0.11559	 0.10056 
11013551	 13551	  6	  8	  2.33	  1414600	 0.11559	 0.10053 
11013561	 13561	  7	  8	  2.33	  1414000	 0.11559	 0.10051 
11013571	 13571	  8	  8	  2.33	  1412800	 0.11559	 0.10047 
11013581	 13581	  9	  8	  2.33	  1412200	 0.11559	 0.10046 
11013591	 13591	  11	  8	  2.33	  1410900	 0.11559	 0.10042 
11013601	 13601	  12	  8	  2.33	  1415100	 0.11584	 0.10025 
11013611	 13611	  13	  8	  2.33	  1413300	 0.11584	 0.1002 
11013621	 13621	  14	  8	  2.33	  1412100	 0.11584	 0.10016 
11013631	 13631	  15	  8	  2.33	  1411500	 0.11584	 0.10015 
11013641	 13641	  16	  8	  2.33	  1410300	 0.11584	 0.10011 
11013651	 13651	  17	  8	  2.33	  1409700	 0.11584	 0.1001 
11013661	 13661	  20	  8	  2.33	  1408500	 0.11584	 0.10006 
11013671	 13671	  3	  8	  2.33	  1406100	 0.1149	 0.10113 
11013681	 13681	  4	  8	  2.912	  1403100	 0.1149	 0.12628 
11013691	 13691	  5	  8	  2.912	  1402500	 0.1149	 0.12626 
11013701	 13701	  6	  8	  2.912	  1401300	 0.1149	 0.12622 
11013711	 13711	  7	  8	  2.912	  1399500	 0.1149	 0.12616 
11013721	 13721	  8	  8	  2.912	  1397700	 0.1149	 0.1261 
11013731	 13731	  9	  8	  2.912	  1397700	 0.1149	 0.1261 
11013741	 13741	  11	  8	  2.912	  1397100	 0.1149	 0.12607 
11013761	 13761	  12	  8	  2.912	  1458400	 0.11723	 0.12461 
11013771	 13771	  13	  8	  2.912	  1455200	 0.11723	 0.12451 
11013781	 13781	  14	  8	  2.912	  1454000	 0.11723	 0.12447 
11013791	 13791	  15	  8	  2.912	  1453300	 0.11723	 0.12445 
11013801	 13801	  16	  8	  2.912	  1451400	 0.11723	 0.12438 
11013811	 13811	  17	  8	  2.912	  1450800	 0.11723	 0.12436 
11013821	 13821	  20	  8	  2.912	  1450200	 0.11723	 0.12434 
11013831	 13831	  3	  8	  3.496	  1456700	 0.11653	 0.15078 
11013841	 13841	  4	  8	  3.496	  1454800	 0.11653	 0.1507 
11013851	 13851	  5	  8	  3.496	  1453500	 0.11653	 0.15065 
11013861	 13861	  6	  8	  3.496	  1452900	 0.11653	 0.15063 
11013871	 13871	  7	  8	  3.496	  1451000	 0.11653	 0.15055 
11013881	 13881	  8	  8	  3.496	  1450400	 0.11653	 0.15053 
11013891	 13891	  9	  8	  3.496	  1449100	 0.11653	 0.15047 
11013901	 13901	  11	  8	  3.496	  1447800	 0.11653	 0.15042 
11013911	 13911	  12	  8	  3.496	  1462800	 0.11759	 0.14915 
11013921	 13921	  13	  8	  3.496	  1460300	 0.11759	 0.14905 
11013931	 13931	  14	  8	  3.496	  1459000	 0.11759	 0.149 
11013941	 13941	  15	  8	  3.496	  1457100	 0.11759	 0.14892 
11013951	 13951	  16	  8	  3.496	  1456500	 0.11759	 0.1489 
11013961	 13961	  17	  8	  3.496	  1455200	 0.11759	 0.14885 
11013971	 13971	  20	  8	  3.496	  1454600	 0.11759	 0.14882 
11013981	 13981	  3	  8	  4.077	  1449100	 0.11679	 0.17495 
11013991	 13991	  4	  8	  4.077	  1447200	 0.11679	 0.17486 
11014001	 14001	  5	  8	  4.077	  1446000	 0.11679	 0.1748 
11014011	 14011	  6	  8	  4.077	  1444700	 0.11679	 0.17474 
11014021	 14021	  7	  8	  4.077	  1443500	 0.11679	 0.17468 
11014031	 14031	  8	  8	  4.077	  1442900	 0.11679	 0.17465 
11014041	 14041	  9	  8	  4.077	  1442200	 0.11679	 0.17462 
11014051	 14051	  11	  8	  4.077	  1441000	 0.11679	 0.17457 
11014061	 14061	  12	  8	  4.077	  1445500	 0.11715	 0.17402 
11014071	 14071	  13	  8	  4.077	  1444200	 0.11715	 0.17396 
11014081	 14081	  14	  8	  4.077	  1443000	 0.11715	 0.17391 
11014091	 14091	  15	  8	  4.077	  1441800	 0.11715	 0.17385 
11014101	 14101	  16	  8	  4.077	  1441100	 0.11715	 0.17382 
11014111	 14111	  17	  8	  4.077	  1439900	 0.11715	 0.17376 
11014121	 14121	  20	  8	  4.077	  1438700	 0.11715	 0.1737 
11014141	 14141	  3	  8	  1.557	  974020	 0.07809	 0.10013 
11014151	 14151	  4	  8	  1.557	  973590	 0.07809	 0.10011 
11014161	 14161	  5	  8	  1.557	  973170	 0.07809	 0.10009 
11014171	 14171	  6	  8	  1.577	  973170	 0.07809	 0.10138 
11014181	 14181	  7	  8	  1.557	  972190	 0.078317	 0.09965 
11014191	 14191	  8	  8	  1.557	  972750	 0.07809	 0.10008 
11014201	 14201	  9	  8	  1.557	  972320	 0.07809	 0.10006 
11014211	 14211	  10	  8	  1.557	  971900	 0.07809	 0.10004 
11014221	 14221	  11	  8	  1.557	  971540	 0.078061	 0.10008 
11014231	 14231	  12	  8	  1.557	  970690	 0.078061	 0.10004 
11014241	 14241	  13	  8	  1.557	  970690	 0.078061	 0.10004 
11014251	 14251	  14	  8	  1.577	  970270	 0.078061	 0.10131 
11014261	 14261	  15	  8	  1.557	  970270	 0.078061	 0.10003 
11014271	 14271	  16	  8	  1.557	  969850	 0.078061	 0.10001 
11014281	 14281	  17	  8	  1.557	  969850	 0.078061	 0.10001 
11014291	 14291	  20	  8	  1.557	  969430	 0.078061	 0.099994 
11014311	 14311	  3	  8	  3.103	  1873600	 0.1546	 0.099662 
11014321	 14321	  4	  8	  3.103	  1868800	 0.1546	 0.099563 
11014331	 14331	  5	  8	  3.103	  1866500	 0.1546	 0.099514 
11014341	 14341	  6	  8	  3.103	  1864900	 0.1546	 0.099481 
11014351	 14351	  7	  8	  3.103	  1862500	 0.1546	 0.099432 
11014361	 14361	  8	  8	  3.103	  1860200	 0.1546	 0.099383 
11014371	 14371	  9	  8	  3.103	  1857800	 0.1546	 0.099333 
11014381	 14381	  10	  8	  3.103	  1855500	 0.1546	 0.099284 
11014391	 14391	  11	  8	  3.103	  1837500	 0.15266	 0.10067 
11014401	 14401	  12	  8	  3.103	  1832800	 0.15266	 0.10057 
11014411	 14411	  13	  8	  3.103	  1830500	 0.15266	 0.10052 
11014421	 14421	  14	  8	  3.103	  1827500	 0.15266	 0.10045 
11014431	 14431	  15	  8	  3.103	  1825900	 0.15266	 0.10042 
11014441	 14441	  16	  8	  3.103	  1823600	 0.15266	 0.10037 
11014451	 14451	  17	  8	  3.103	  1822100	 0.15266	 0.10034 
11014461	 14461	  20	  8	  3.103	  1819800	 0.15266	 0.10029 
