% Time() Angle(deg) Cn Ct Cm
0	10.55	1.0478	0.11015	0.0038924
0.05	11.01	1.0976	0.12328	0.0025921
0.1	11.5	1.144	0.13759	0.0046823
0.15	12.04	1.2041	0.15319	0.0010941
0.2	12.52	1.2579	0.16887	0.0007198
0.25	13	1.3066	0.18592	0.0014836
0.3	13.53	1.3525	0.20305	0.0013818
0.35	13.99	1.3942	0.2205	0.0033845
0.4	14.4	1.4449	0.23817	0.0033235
0.45	14.86	1.4903	0.25774	0.0054696
0.49	15.31	1.5349	0.27811	0.0072217
0.54	15.74	1.5729	0.29683	0.0086567
0.59	16.15	1.6145	0.31712	0.0091352
0.64	16.58	1.6557	0.33751	0.0087602
0.69	16.97	1.6849	0.35652	0.012429
0.74	17.33	1.7172	0.37662	0.013552
0.79	17.66	1.7462	0.39542	0.015469
0.84	17.96	1.7759	0.41327	0.012151
0.89	18.32	1.8034	0.4311	0.012319
0.94	18.57	1.8245	0.44642	0.010966
0.99	18.84	1.8454	0.45969	0.0086639
1.04	19.05	1.8603	0.47279	0.0083602
1.09	19.22	1.8826	0.48493	0.0025501
1.14	19.41	1.9013	0.49483	-0.0017247
1.19	19.56	1.9152	0.50392	-0.0073107
1.24	19.7	1.9169	0.51001	-0.008817
1.29	19.79	1.9327	0.51407	-0.017244
1.34	19.82	1.948	0.51641	-0.028387
1.39	19.9	1.9551	0.5158	-0.037867
1.43	19.93	1.9549	0.51097	-0.044482
1.48	19.95	1.9575	0.50534	-0.054402
1.53	19.94	1.9701	0.49561	-0.069896
1.58	19.89	1.9681	0.48388	-0.076037
1.63	19.91	1.9868	0.46844	-0.093521
1.68	19.88	2.003	0.44951	-0.11528
1.73	19.82	2.0218	0.4265	-0.13748
1.78	19.72	2.0219	0.39843	-0.1484
1.83	19.57	2.0284	0.36622	-0.16682
1.88	19.42	2.0404	0.33089	-0.19622
1.93	19.23	2.0415	0.29048	-0.2283
1.98	18.98	2.0262	0.25049	-0.25413
2.03	18.71	1.9955	0.20863	-0.28597
2.08	18.39	1.951	0.17526	-0.31644
2.13	18.06	1.8704	0.14694	-0.33054
2.18	17.73	1.7418	0.11908	-0.3172
2.23	17.39	1.5708	0.095048	-0.28206
2.28	17.04	1.428	0.07391	-0.25071
2.33	16.64	1.2779	0.059273	-0.21231
2.37	16.27	1.1622	0.052493	-0.18564
2.42	15.89	1.0378	0.048971	-0.13781
2.47	15.5	0.9425	0.04979	-0.10367
2.52	15.08	0.88519	0.049185	-0.083991
2.57	14.65	0.84597	0.05185	-0.071321
2.62	14.23	0.79098	0.056959	-0.04554
2.67	13.77	0.76164	0.061113	-0.030681
2.72	13.28	0.71554	0.069121	-0.0066026
2.77	12.82	0.67166	0.074913	0.017882
2.82	12.36	0.64692	0.078848	0.029852
2.87	11.89	0.6391	0.08125	0.035933
2.92	11.45	0.63581	0.083533	0.036987
2.97	11.03	0.61494	0.084482	0.041987
3.02	10.54	0.59423	0.086907	0.043927
3.07	10.04	0.56182	0.085829	0.052688
3.12	9.562	0.51721	0.082799	0.063129
3.17	9.067	0.48416	0.079994	0.069334
3.22	8.559	0.4358	0.076988	0.084669
3.27	8.007	0.40266	0.072408	0.092548
3.31	7.503	0.38201	0.068615	0.092203
3.36	6.97	0.35894	0.063883	0.092373
3.41	6.458	0.33025	0.059016	0.095522
3.46	5.941	0.30539	0.053776	0.096805
3.51	5.431	0.28849	0.048766	0.093748
3.56	4.934	0.27319	0.043776	0.090375
3.61	4.479	0.25313	0.038361	0.089432
3.66	4.025	0.2227	0.032307	0.093739
3.71	3.622	0.20016	0.028161	0.092933
3.76	3.209	0.18474	0.024248	0.088585
3.81	2.867	0.17202	0.021317	0.085447
3.86	2.517	0.15173	0.017929	0.085661
3.91	2.175	0.1266	0.015037	0.087008
3.96	1.864	0.10655	0.012478	0.08547
4.01	1.595	0.085241	0.0097448	0.086025
4.06	1.312	0.069262	0.0075816	0.08233
4.11	1.071	0.056227	0.0057094	0.079221
4.16	0.8684	0.031854	0.0045313	0.080142
4.21	0.6761	0.0091185	0.0027757	0.08116
4.25	0.528	-0.00024262	0.0016409	0.07775
4.3	0.3835	-0.011404	0.00074281	0.076423
4.35	0.2675	-0.027218	0.00056566	0.073749
4.4	0.1604	-0.038232	-0.00073938	0.073474
4.45	0.06004	-0.046065	-0.0010787	0.071517
4.5	-0.01863	-0.054485	-0.0022144	0.071668
4.55	-0.06384	-0.064972	-0.0020376	0.069821
4.6	-0.06599	-0.066801	-0.0025203	0.067169
4.65	-0.1015	-0.076909	-0.0027662	0.067618
4.7	-0.08642	-0.074879	-0.0030097	0.063975
4.75	-0.06491	-0.073984	-0.0031577	0.062887
4.8	-0.02401	-0.071833	-0.0038296	0.061851
4.85	0.02338	-0.068062	-0.0038567	0.061521
4.9	0.114	-0.063035	-0.0040562	0.059523
4.95	0.2404	-0.054601	-0.0048863	0.058844
5	0.352	-0.034697	-0.004883	0.054726
5.05	0.5334	-0.016288	-0.0055822	0.053194
5.1	0.7045	0.00057437	-0.006072	0.051974
5.15	0.9484	0.027358	-0.0063313	0.048264
5.19	1.185	0.056714	-0.005885	0.046055
5.24	1.46	0.083763	-0.0057034	0.045705
5.29	1.771	0.11022	-0.0047924	0.046201
5.34	2.056	0.1482	-0.0043244	0.04325
5.39	2.34	0.17636	-0.003673	0.043908
5.44	2.667	0.21223	-0.0022267	0.041374
5.49	3.031	0.24594	-0.0002696	0.04168
5.54	3.393	0.28281	0.0012675	0.040404
5.59	3.735	0.31158	0.0029054	0.043116
5.64	4.137	0.3627	0.0061335	0.037316
5.69	4.572	0.39519	0.0090861	0.038886
5.74	4.986	0.43647	0.012287	0.0376
5.79	5.411	0.47141	0.015766	0.039687
5.84	5.873	0.50958	0.019916	0.041392
5.89	6.309	0.55467	0.025611	0.039713
5.94	6.741	0.60189	0.032717	0.037184
5.99	7.217	0.65595	0.040588	0.031356
6.04	7.698	0.71333	0.048428	0.025112
6.09	8.145	0.77435	0.057967	0.018964
6.13	8.628	0.83055	0.066775	0.015131
6.18	9.086	0.88408	0.076115	0.012422
6.23	9.574	0.94067	0.086689	0.0090392
