% Time() Angle(deg) Cn Ct Cm
0	10.43	1.0302	0.13241	0.025104
0.05	10.72	1.0489	0.14056	0.02853
0.1	11	1.0846	0.14945	0.024955
0.15	11.32	1.1146	0.15811	0.024187
0.2	11.6	1.1425	0.16695	0.02602
0.25	11.9	1.1722	0.17604	0.025089
0.3	12.2	1.2013	0.18639	0.024216
0.35	12.5	1.2265	0.1957	0.026847
0.4	12.79	1.2495	0.20609	0.029567
0.45	13.06	1.2729	0.21681	0.031542
0.49	13.36	1.2971	0.22843	0.03434
0.54	13.62	1.3268	0.24049	0.033171
0.59	13.9	1.3525	0.25205	0.03359
0.64	14.12	1.3743	0.26251	0.035119
0.69	14.34	1.3917	0.2728	0.037598
0.74	14.58	1.4147	0.28215	0.037854
0.79	14.8	1.4353	0.2916	0.037861
0.84	15.01	1.4499	0.30151	0.039483
0.89	15.17	1.4684	0.31051	0.038716
0.94	15.32	1.4843	0.3186	0.038291
0.99	15.48	1.4977	0.32738	0.036358
1.04	15.65	1.5096	0.33506	0.036564
1.09	15.75	1.5166	0.34014	0.037688
1.14	15.85	1.5231	0.34679	0.038545
1.19	15.94	1.5336	0.35342	0.036542
1.24	16.01	1.5442	0.35811	0.033869
1.29	16.08	1.5502	0.36225	0.033324
1.34	16.14	1.5572	0.36582	0.031126
1.39	16.16	1.5656	0.36844	0.027182
1.43	16.19	1.561	0.37231	0.028254
1.48	16.2	1.5652	0.37324	0.025137
1.53	16.21	1.5567	0.37332	0.02776
1.58	16.18	1.5427	0.37256	0.032308
1.63	16.19	1.5546	0.37121	0.022761
1.68	16.17	1.5608	0.36898	0.013695
1.73	16.15	1.5654	0.36843	0.0083791
1.78	16.19	1.5551	0.36729	0.010463
1.83	16.15	1.5473	0.3659	0.011016
1.88	16.07	1.5279	0.36316	0.015753
1.93	15.97	1.5264	0.35946	0.008926
1.98	15.84	1.5136	0.35588	0.0046614
2.03	15.71	1.4836	0.35212	0.010525
2.08	15.57	1.4671	0.34438	0.0079366
2.13	15.37	1.4457	0.33734	0.0064791
2.18	15.16	1.4151	0.32686	0.0053767
2.23	14.95	1.382	0.31604	0.008911
2.28	14.75	1.3424	0.30404	0.013478
2.33	14.45	1.3129	0.292	0.011513
2.37	14.22	1.2908	0.27945	0.0065041
2.42	13.94	1.2565	0.26727	0.0059686
2.47	13.66	1.2109	0.25537	0.01333
2.52	13.38	1.182	0.24352	0.014714
2.57	13.07	1.1409	0.23307	0.019625
2.62	12.76	1.1062	0.22169	0.022473
2.67	12.47	1.0688	0.21065	0.025139
2.72	12.14	1.0296	0.20147	0.030748
2.77	11.85	0.98417	0.1919	0.039652
2.82	11.55	0.95082	0.18309	0.044561
2.87	11.26	0.91797	0.17573	0.052116
2.92	10.95	0.89911	0.16872	0.050698
2.97	10.65	0.87793	0.16205	0.052266
3.02	10.36	0.84359	0.1556	0.059145
3.07	10.08	0.81516	0.14943	0.061003
3.12	9.776	0.7976	0.14299	0.062436
3.17	9.478	0.76659	0.13728	0.067347
3.22	9.192	0.75034	0.13206	0.066858
3.27	8.901	0.71628	0.12584	0.073705
3.31	8.604	0.69381	0.11961	0.076017
3.36	8.252	0.67098	0.11429	0.075484
3.41	7.942	0.6515	0.10898	0.078998
3.46	7.677	0.62785	0.10331	0.079953
3.51	7.389	0.60461	0.097187	0.080125
3.56	7.053	0.58451	0.090877	0.082762
3.61	6.762	0.57525	0.085353	0.079686
3.66	6.462	0.55845	0.08066	0.077811
3.71	6.229	0.54826	0.075492	0.076908
3.76	5.95	0.53545	0.070476	0.076413
3.81	5.742	0.52471	0.065395	0.074209
3.86	5.513	0.51362	0.062141	0.07152
3.91	5.296	0.51374	0.059308	0.066
3.96	5.125	0.5088	0.056679	0.062184
4.01	4.944	0.50054	0.052866	0.062403
4.06	4.79	0.48035	0.049329	0.067393
4.11	4.633	0.47294	0.046343	0.065177
4.16	4.486	0.4655	0.044648	0.063291
4.21	4.4	0.46491	0.042503	0.057629
4.25	4.308	0.45397	0.040432	0.056168
4.3	4.209	0.44712	0.037692	0.055452
4.35	4.1	0.43688	0.0359	0.05656
4.4	4.043	0.42696	0.033779	0.05663
4.45	4.003	0.41662	0.032495	0.05802
4.5	3.952	0.42148	0.031507	0.05387
4.55	3.909	0.40827	0.029941	0.056427
4.6	3.889	0.41155	0.029296	0.053
4.65	3.913	0.40386	0.028006	0.053587
4.7	3.901	0.4013	0.027088	0.055529
4.75	3.883	0.40759	0.027151	0.0526
4.8	3.914	0.4043	0.027748	0.050736
4.85	3.904	0.40223	0.027129	0.050599
4.9	3.924	0.40804	0.027196	0.048109
4.95	3.944	0.4115	0.027253	0.047935
5	4.013	0.41676	0.027071	0.046151
5.05	4.1	0.41842	0.026853	0.048233
5.1	4.189	0.42608	0.02733	0.045986
5.15	4.365	0.43997	0.027496	0.043463
5.19	4.5	0.45437	0.027754	0.041509
5.24	4.648	0.47473	0.028526	0.037917
5.29	4.81	0.486	0.02994	0.036774
5.34	4.989	0.50275	0.031836	0.036553
5.39	5.179	0.52783	0.034314	0.033329
5.44	5.387	0.5462	0.03623	0.033828
5.49	5.618	0.56342	0.038089	0.035324
5.54	5.824	0.59039	0.041539	0.031829
5.59	6.084	0.62129	0.045276	0.028975
5.64	6.344	0.6447	0.048914	0.027724
5.69	6.615	0.67533	0.053207	0.024812
5.74	6.863	0.7068	0.057149	0.022133
5.79	7.136	0.73354	0.061759	0.020703
5.84	7.435	0.75797	0.067523	0.021502
5.89	7.759	0.78701	0.072929	0.02179
5.94	8.042	0.81278	0.078531	0.022746
5.99	8.337	0.83464	0.08399	0.025218
6.04	8.629	0.86552	0.090234	0.023352
6.09	8.944	0.89175	0.097517	0.022882
6.13	9.217	0.9235	0.10525	0.021082
6.18	9.523	0.94826	0.11206	0.022287
6.23	9.837	0.96946	0.11816	0.025689
