% Time() Angle(deg) Cn Ct Cm
0	10.54	1.0406	0.13361	0.01437
0.05	11.04	1.0907	0.14957	0.016533
0.1	11.59	1.1591	0.16743	0.0092358
0.15	12.09	1.2026	0.18368	0.010886
0.2	12.6	1.2528	0.20043	0.010452
0.25	13.1	1.3027	0.21926	0.011397
0.3	13.56	1.3428	0.23743	0.01833
0.35	14.07	1.3923	0.25762	0.019501
0.4	14.54	1.4472	0.27719	0.01635
0.45	15.01	1.497	0.29648	0.015386
0.49	15.47	1.5382	0.31786	0.016176
0.54	15.94	1.5791	0.33657	0.014412
0.59	16.34	1.618	0.36005	0.015046
0.64	16.78	1.6596	0.3804	0.011233
0.69	17.2	1.7076	0.39836	0.0026476
0.74	17.56	1.7342	0.41524	-0.0018036
0.79	17.95	1.7685	0.43263	-0.0093352
0.84	18.29	1.802	0.44595	-0.02306
0.89	18.64	1.8236	0.45384	-0.031121
0.94	18.97	1.8617	0.45743	-0.053073
0.99	19.24	1.8887	0.45685	-0.073641
1.04	19.52	1.9138	0.45049	-0.095959
1.09	19.76	1.9406	0.43428	-0.12396
1.14	19.98	1.9722	0.40324	-0.15235
1.19	20.19	2.0174	0.35319	-0.19427
1.24	20.35	2.0471	0.28685	-0.24203
1.29	20.49	2.0545	0.21882	-0.31387
1.34	20.62	1.9674	0.16115	-0.35213
1.39	20.7	1.7812	0.11439	-0.32812
1.43	20.74	1.594	0.06462	-0.29726
1.48	20.77	1.4495	0.027872	-0.27325
1.53	20.82	1.3271	0.02354	-0.22342
1.58	20.87	1.2231	0.036444	-0.18051
1.63	20.9	1.2245	0.061581	-0.15458
1.68	20.92	1.2752	0.088409	-0.13176
1.73	20.93	1.2975	0.11888	-0.09849
1.78	20.93	1.3911	0.13374	-0.11804
1.83	20.91	1.448	0.13683	-0.1509
1.88	20.8	1.4472	0.13205	-0.16073
1.93	20.61	1.4128	0.12068	-0.1573
1.98	20.36	1.3756	0.10916	-0.15777
2.03	20.13	1.2905	0.10019	-0.14575
2.08	19.82	1.1989	0.089727	-0.12358
2.13	19.56	1.1294	0.079998	-0.11079
2.18	19.24	1.0628	0.072056	-0.093972
2.23	18.92	1.0156	0.070364	-0.082002
2.28	18.56	0.95732	0.074679	-0.064448
2.33	18.23	0.90248	0.074722	-0.047746
2.38	17.83	0.86379	0.075019	-0.042803
2.42	17.45	0.83893	0.073222	-0.03808
2.47	17.03	0.81546	0.074959	-0.0325
2.52	16.62	0.78643	0.076715	-0.026227
2.57	16.18	0.74708	0.082513	-0.014046
2.62	15.72	0.72379	0.090084	-0.00087289
2.67	15.23	0.70114	0.098462	0.0156
2.72	14.79	0.68134	0.1043	0.031333
2.77	14.27	0.67425	0.10735	0.038291
2.82	13.75	0.68276	0.11275	0.043949
2.87	13.24	0.6895	0.11665	0.049251
2.92	12.71	0.71548	0.11591	0.036932
2.97	12.22	0.71101	0.11554	0.042537
3.02	11.66	0.68824	0.11579	0.054642
3.07	11.15	0.69078	0.11489	0.057032
3.12	10.59	0.68679	0.11143	0.060157
3.17	10.09	0.69448	0.10761	0.054337
3.22	9.583	0.68162	0.10401	0.058567
3.27	9.058	0.66463	0.099355	0.060467
3.32	8.553	0.64828	0.093589	0.06251
3.36	8.021	0.62595	0.087985	0.066978
3.41	7.529	0.62066	0.082696	0.059444
3.46	7.048	0.60235	0.07667	0.058016
3.51	6.541	0.57819	0.069857	0.056059
3.56	6.08	0.55001	0.0638	0.058757
3.61	5.643	0.50782	0.05666	0.059903
3.66	5.2	0.49171	0.050993	0.052617
3.71	4.743	0.45892	0.044596	0.055353
3.76	4.37	0.42373	0.03938	0.056863
3.81	3.948	0.39305	0.035322	0.053722
3.86	3.567	0.3595	0.030111	0.052893
3.91	3.209	0.32755	0.025692	0.052628
3.96	2.853	0.29117	0.021282	0.053946
4.01	2.524	0.25832	0.017871	0.052718
4.06	2.219	0.2268	0.014309	0.053373
4.11	1.959	0.19091	0.011934	0.055583
4.16	1.709	0.1576	0.0091129	0.056257
4.21	1.451	0.12286	0.0069916	0.057749
4.26	1.24	0.092245	0.0043957	0.058681
4.3	1.032	0.071943	0.0022929	0.056674
4.35	0.8746	0.045251	0.00076255	0.056902
4.4	0.7201	0.025115	-0.00033032	0.055018
4.45	0.5933	0.009986	-0.0011435	0.054197
4.5	0.5279	0.001715	-0.0016628	0.052099
4.55	0.4494	-0.013061	-0.0021221	0.050226
4.6	0.3972	-0.03096	-0.0022535	0.052589
4.65	0.3265	-0.04619	-0.0027484	0.054046
4.7	0.3483	-0.045779	-0.0029915	0.053196
4.75	0.3244	-0.049628	-0.0027213	0.052115
4.8	0.332	-0.059925	-0.0032115	0.054349
4.85	0.3657	-0.066694	-0.0035721	0.054175
4.9	0.3841	-0.060953	-0.0037862	0.052786
4.95	0.4669	-0.056847	-0.0038698	0.05017
5	0.5464	-0.04846	-0.004035	0.049803
5.05	0.6654	-0.035176	-0.004552	0.048641
5.1	0.868	-0.010238	-0.004588	0.044749
5.15	1.06	0.0068363	-0.0044178	0.045424
5.2	1.283	0.034317	-0.0035451	0.043204
5.25	1.497	0.055711	-0.0036083	0.043547
5.29	1.803	0.074213	-0.0031143	0.045304
5.34	2.057	0.10084	-0.0023675	0.044132
5.39	2.34	0.12231	-0.0017627	0.045294
5.44	2.643	0.15397	-0.00025712	0.043884
5.49	2.964	0.19042	0.0012173	0.042582
5.54	3.298	0.2191	0.0028947	0.044074
5.59	3.634	0.25909	0.0054054	0.041199
5.64	4.037	0.29277	0.0079256	0.042376
5.69	4.456	0.34027	0.011604	0.039488
5.74	4.827	0.38587	0.016586	0.036784
5.79	5.266	0.44052	0.021846	0.032178
5.84	5.69	0.49173	0.027543	0.02779
5.89	6.159	0.53772	0.033992	0.026424
5.94	6.587	0.59125	0.040778	0.022291
5.99	7.053	0.65058	0.050152	0.016545
6.04	7.525	0.70407	0.058034	0.018329
6.09	7.984	0.76193	0.06857	0.013297
6.14	8.512	0.81816	0.078938	0.012539
6.19	9	0.87217	0.090457	0.011366
6.23	9.497	0.92339	0.10272	0.012338
