% Time() Angle(deg) Cn Ct Cm
0	10.53	0.95398	0.094766	0.0082383
0.05	11.06	1.0042	0.10819	0.0059795
0.1	11.54	1.0593	0.12138	0.00296
0.15	12.03	1.1133	0.13587	0.00019735
0.2	12.52	1.1693	0.15086	-0.004242
0.25	12.99	1.2144	0.16627	-0.00423
0.3	13.47	1.2612	0.1824	-0.0041237
0.35	13.94	1.3146	0.19836	-0.0075319
0.4	14.38	1.3588	0.21642	-0.0071317
0.45	14.85	1.4059	0.23393	-0.0071013
0.49	15.3	1.4562	0.2524	-0.0082012
0.54	15.72	1.5051	0.27236	-0.0083149
0.59	16.14	1.5448	0.29184	-0.0070155
0.64	16.58	1.5763	0.31242	-0.0015649
0.69	16.98	1.6218	0.33089	-0.002913
0.74	17.38	1.6499	0.34893	-0.0003334
0.79	17.72	1.6856	0.37059	0.0013939
0.84	18.06	1.7204	0.39153	0.0031604
0.89	18.36	1.7538	0.40899	0.0019945
0.94	18.71	1.7792	0.42741	0.0024017
0.99	19	1.8058	0.44563	0.0018033
1.04	19.25	1.8337	0.4631	0.00015769
1.09	19.54	1.8567	0.47971	0.00088589
1.14	19.75	1.872	0.49457	0.00068787
1.19	19.96	1.8842	0.50812	0.00050019
1.24	20.13	1.8965	0.52074	-0.0011284
1.29	20.28	1.9023	0.5303	-0.0042914
1.34	20.34	1.9047	0.53739	-0.006126
1.39	20.39	1.9108	0.54176	-0.0095148
1.43	20.42	1.9226	0.54328	-0.019314
1.48	20.4	1.9227	0.54218	-0.025048
1.53	20.42	1.9149	0.53835	-0.026278
1.58	20.41	1.9248	0.53249	-0.036898
1.63	20.36	1.9375	0.52602	-0.049173
1.68	20.29	1.945	0.51805	-0.062507
1.73	20.22	1.9604	0.50645	-0.078174
1.78	20.14	1.9682	0.49339	-0.087771
1.83	20.04	1.9808	0.47739	-0.10142
1.88	19.88	1.9763	0.4597	-0.10806
1.93	19.69	1.9726	0.43957	-0.11753
1.98	19.49	1.9816	0.41409	-0.13351
2.03	19.26	1.9833	0.38297	-0.15012
2.08	18.98	1.9802	0.34738	-0.17104
2.13	18.68	1.9837	0.31086	-0.20224
2.18	18.37	1.9753	0.27217	-0.23365
2.23	18.06	1.9687	0.23264	-0.27046
2.28	17.69	1.9335	0.19915	-0.30557
2.33	17.34	1.8744	0.16918	-0.33299
2.37	16.97	1.7706	0.14492	-0.3319
2.42	16.61	1.6368	0.12329	-0.31312
2.47	16.18	1.4487	0.10501	-0.26273
2.52	15.76	1.2644	0.090775	-0.20951
2.57	15.33	1.1439	0.077206	-0.18541
2.62	14.88	0.99013	0.068749	-0.13125
2.67	14.41	0.88494	0.060453	-0.099499
2.72	13.98	0.79461	0.054711	-0.069543
2.77	13.49	0.72268	0.052267	-0.044792
2.82	13.01	0.67301	0.051821	-0.030329
2.87	12.5	0.62477	0.052555	-0.015917
2.92	12.02	0.58494	0.05225	-0.0030042
2.97	11.48	0.54403	0.054206	0.011311
3.02	11.01	0.508	0.055797	0.024103
3.07	10.55	0.47812	0.056062	0.032258
3.12	10.06	0.45229	0.056559	0.038519
3.17	9.591	0.42532	0.055761	0.043073
3.22	9.104	0.39886	0.055637	0.049811
3.27	8.613	0.36505	0.055772	0.061203
3.32	8.145	0.32867	0.055647	0.071625
3.36	7.672	0.29786	0.053915	0.078059
3.41	7.224	0.25763	0.051547	0.089319
3.46	6.696	0.22942	0.049839	0.096212
3.51	6.257	0.21301	0.047073	0.094813
3.56	5.767	0.2056	0.045221	0.089272
3.61	5.301	0.18263	0.042436	0.090616
3.66	4.829	0.15025	0.038658	0.095102
3.71	4.431	0.13146	0.033905	0.095851
3.76	3.956	0.10836	0.030182	0.096008
3.81	3.52	0.092515	0.02704	0.091672
3.86	3.106	0.08013	0.023633	0.086171
3.91	2.74	0.054355	0.020934	0.086841
3.96	2.394	0.037432	0.017986	0.084911
4.01	2.042	0.012859	0.01408	0.087292
4.06	1.77	-0.0069991	0.011449	0.089838
4.11	1.465	-0.024931	0.0085708	0.089336
4.16	1.206	-0.03968	0.0066777	0.086397
4.21	0.9734	-0.058724	0.0047428	0.085787
4.26	0.7179	-0.076404	0.0031541	0.085738
4.3	0.5432	-0.078919	0.0019527	0.079035
4.35	0.3537	-0.093628	0.00010599	0.079128
4.4	0.2592	-0.090128	-0.0011608	0.076026
4.45	0.1768	-0.098102	-0.0023656	0.07449
4.5	0.14	-0.09204	-0.0029873	0.069602
4.55	0.09347	-0.088044	-0.0040388	0.066598
4.6	0.09023	-0.08767	-0.0036256	0.064801
4.65	0.1054	-0.084354	-0.0041298	0.064395
4.7	0.1184	-0.088675	-0.0047311	0.064729
4.75	0.1508	-0.084544	-0.0039508	0.062608
4.8	0.1898	-0.09745	-0.0034968	0.065153
4.85	0.2289	-0.091502	-0.0030668	0.062967
4.9	0.3026	-0.082938	-0.0032303	0.05942
4.95	0.3798	-0.081725	-0.0029254	0.059217
5	0.4821	-0.075985	-0.0037827	0.058806
5.05	0.6174	-0.063352	-0.0041013	0.054817
5.1	0.7683	-0.046283	-0.0047162	0.052532
5.15	0.9701	-0.028331	-0.0053645	0.051087
5.2	1.172	-0.00531	-0.0057508	0.047158
5.24	1.397	0.024526	-0.0064317	0.043544
5.29	1.67	0.053818	-0.0061824	0.040174
5.34	1.924	0.074947	-0.0059069	0.040728
5.39	2.227	0.11183	-0.0057501	0.038201
5.44	2.547	0.14331	-0.0049876	0.038733
5.49	2.878	0.17663	-0.0022468	0.036249
5.54	3.24	0.2157	-0.0013895	0.034126
5.59	3.598	0.24397	0.00034105	0.036386
5.64	3.951	0.2865	0.0024654	0.03328
5.69	4.372	0.32557	0.0050558	0.031662
5.74	4.765	0.37038	0.0082906	0.028673
5.79	5.184	0.40959	0.010499	0.029027
5.84	5.615	0.45661	0.014839	0.02689
5.89	6.087	0.49872	0.018674	0.025799
5.94	6.561	0.5391	0.023887	0.027268
5.99	7.052	0.58744	0.029501	0.027601
6.04	7.536	0.63525	0.037035	0.02588
6.09	8.054	0.68489	0.044767	0.023516
6.14	8.568	0.73338	0.053434	0.020531
6.18	9.043	0.79938	0.063368	0.014654
6.23	9.577	0.84918	0.073766	0.012325
