% Time() Angle(deg) Cn Ct Cm
0	0.08825	-0.027401	-0.0039946	0.00093139
0.75	0.5445	0.018556	-0.0042709	0.0019751
1.5	0.9356	0.056677	-0.0036783	0.0021374
2.25	1.327	0.09735	-0.0026296	0.0029265
3.01	1.734	0.14166	-0.00080547	0.0036009
3.76	2.125	0.17745	0.0011518	0.003006
4.51	2.548	0.21524	0.0031113	0.0030909
5.26	2.938	0.2608	0.0065995	0.0036701
6.01	3.329	0.29633	0.010663	0.0051497
6.76	3.752	0.3357	0.015194	0.0065375
7.51	4.126	0.37797	0.019543	0.0058624
8.26	4.532	0.41954	0.025042	0.0071953
9.02	4.954	0.46002	0.031934	0.009447
9.77	5.327	0.49542	0.037568	0.0091904
10.52	5.749	0.54019	0.045261	0.0089941
11.27	6.138	0.57585	0.05279	0.011241
12.02	6.543	0.62241	0.061331	0.0095048
12.77	6.947	0.66243	0.070504	0.010064
13.52	7.352	0.6969	0.078888	0.011064
14.27	7.74	0.73724	0.088362	0.01097
15.03	8.143	0.77689	0.098832	0.010619
15.78	8.53	0.81257	0.1094	0.011879
16.53	8.917	0.85405	0.12068	0.013356
17.28	9.335	0.88525	0.13092	0.013399
18.03	9.721	0.9233	0.1423	0.013319
18.78	10.11	0.94875	0.15182	0.014128
19.53	10.52	0.98749	0.16617	0.016273
20.28	10.91	1.0102	0.17382	0.016711
21.04	11.31	1.0482	0.18972	0.018285
21.79	11.71	1.0774	0.20132	0.018555
22.54	12.09	1.1083	0.21527	0.020205
23.29	12.51	1.1337	0.23052	0.023077
24.04	12.89	1.159	0.24176	0.023474
24.79	13.29	1.1798	0.25356	0.024462
25.54	13.67	1.2054	0.26762	0.026053
26.29	14.06	1.2134	0.27688	0.028275
27.05	14.46	1.2223	0.28392	0.023934
27.8	14.84	1.152	0.24354	0.0015718
28.55	15.23	1.0704	0.21943	-0.0091823
29.3	15.59	1.0671	0.1964	-0.025824
30.05	15.99	0.9145	0.1616	-0.021466
30.8	16.36	0.92659	0.15581	-0.02626
31.55	16.77	1.0075	0.18113	-0.030773
32.3	17.14	0.93556	0.1596	-0.030134
33.06	17.52	0.88499	0.13961	-0.032749
33.81	17.89	0.88112	0.14085	-0.031477
34.56	18.3	0.89257	0.14093	-0.035352
35.31	18.67	0.86276	0.13525	-0.033483
36.06	19.05	0.84734	0.13052	-0.034584
36.81	19.42	0.89795	0.14036	-0.040122
37.56	19.81	0.85277	0.12837	-0.038194
38.31	20.18	0.88412	0.12688	-0.04376
39.07	20.56	0.95023	0.14614	-0.048154
39.82	20.94	0.89931	0.13613	-0.041202
40.57	21.32	0.87753	0.12368	-0.046306
41.32	21.69	0.76657	-0.047226	-0.078281
42.07	22.05	0.77481	-0.064566	-0.083633
42.82	22.43	0.76851	-0.068203	-0.082666
43.57	22.81	0.75338	-0.068295	-0.079774
44.32	23.17	0.79583	-0.068621	-0.08703
45.08	23.55	0.81847	-0.067087	-0.091864
45.83	23.9	0.8043	-0.067629	-0.087309
46.58	24.28	0.8268	-0.067942	-0.091523
47.33	24.65	0.84076	-0.066445	-0.09492
48.08	24.65	0.86147	-0.067198	-0.098057
48.83	24.17	0.83838	-0.067717	-0.093423
49.58	23.84	0.79663	-0.066986	-0.08514
50.33	23.49	0.78581	-0.068619	-0.085274
51.09	23.11	0.8207	-0.067834	-0.090779
51.84	22.76	0.75746	-0.067526	-0.078659
52.59	22.37	0.72844	-0.066562	-0.073617
53.34	22.01	0.72832	-0.067254	-0.075305
54.09	21.63	0.78774	-0.05244	-0.081262
54.84	21.28	0.69643	-0.068701	-0.071647
55.59	20.87	0.74854	-0.058296	-0.07803
56.34	20.5	0.7204	-0.065492	-0.077031
57.1	20.12	0.70452	-0.066427	-0.073601
57.85	19.73	0.82655	-0.030004	-0.08001
58.6	19.36	0.6589	-0.066783	-0.067945
59.35	18.96	0.76592	-0.036061	-0.075987
60.1	18.59	0.75003	-0.036265	-0.072781
60.85	18.2	0.87983	-0.0042076	-0.086087
61.6	17.83	0.92075	0.0013222	-0.090208
62.35	17.46	0.79563	-0.048256	-0.092745
63.11	17.07	0.85589	-0.031141	-0.096884
63.86	16.66	0.92818	0.024162	-0.084215
64.61	16.28	0.8707	-0.023154	-0.095734
65.36	15.91	0.85324	-0.015806	-0.090926
66.11	15.55	1.017	0.1959	-0.017236
66.86	15.17	1.1561	0.24862	0.0028367
67.61	14.79	1.2102	0.28535	0.023436
68.36	14.38	1.2015	0.26806	0.016697
69.12	14.01	1.2114	0.2741	0.025258
69.87	13.6	1.2011	0.26773	0.025971
70.62	13.21	1.1761	0.2512	0.0248
71.37	12.82	1.1544	0.24024	0.024553
72.12	12.44	1.1305	0.22722	0.021993
72.87	12.03	1.0992	0.21296	0.021269
73.62	11.63	1.0744	0.20039	0.018819
74.37	11.24	1.042	0.188	0.017744
75.13	10.86	1.0054	0.1722	0.014659
75.88	10.46	0.98078	0.16342	0.014077
76.63	10.06	0.94799	0.15191	0.014386
77.38	9.657	0.91123	0.14	0.014704
78.13	9.271	0.88552	0.13107	0.014364
78.88	8.869	0.85792	0.12152	0.012004
79.63	8.466	0.81101	0.10805	0.011711
80.38	8.062	0.76666	0.095975	0.011092
81.14	7.659	0.72535	0.086343	0.011442
81.89	7.271	0.693	0.0786	0.010551
82.64	6.883	0.65508	0.069805	0.012102
83.39	6.462	0.61433	0.059478	0.0093811
84.14	6.073	0.57469	0.051344	0.0094567
84.89	5.668	0.53381	0.045189	0.0097065
85.64	5.262	0.49053	0.036773	0.0091268
86.39	4.857	0.45215	0.031265	0.0083915
87.15	4.467	0.41394	0.025174	0.0076497
87.9	4.061	0.3718	0.020448	0.007904
88.65	3.654	0.33067	0.014736	0.0052599
89.4	3.264	0.2943	0.01062	0.005354
90.15	2.857	0.25287	0.0069662	0.0049663
90.9	2.45	0.21466	0.0044122	0.0048608
91.65	2.059	0.17479	0.0017443	0.003596
92.4	1.652	0.12904	-0.0013744	0.002922
93.16	1.245	0.091951	-0.0027176	0.0016477
93.91	0.8378	0.04694	-0.0034481	0.0028089
94.66	0.4468	0.007307	-0.0039854	0.0025024
95.41	0.03936	-0.033431	-0.0041855	0.0021432
