% Time() Angle(deg) Cn Ct Cm
0	6.133	0.54452	0.043335	0.0047994
0.05	6.546	0.59	0.052338	0.0056824
0.1	6.918	0.63162	0.05814	0.0046195
0.15	7.353	0.67893	0.069891	0.0010344
0.2	7.715	0.71831	0.079381	0.0043351
0.25	8.1	0.74669	0.086843	0.0055284
0.29	8.532	0.78591	0.097442	0.0059343
0.34	8.899	0.82386	0.10803	0.0085338
0.39	9.324	0.87155	0.11937	0.0079018
0.44	9.68	0.91345	0.13161	0.0063899
0.49	10.08	0.93209	0.14021	0.0088972
0.54	10.45	0.97098	0.15331	0.007489
0.59	10.81	0.99498	0.16377	0.01029
0.64	11.15	1.0307	0.1767	0.0087516
0.69	11.44	1.0609	0.18791	0.011393
0.74	11.8	1.0906	0.20114	0.014557
0.79	12.09	1.1139	0.21343	0.016263
0.83	12.39	1.1382	0.22181	0.013434
0.88	12.7	1.1548	0.23045	0.018561
0.93	12.99	1.1746	0.24093	0.017513
0.98	13.24	1.1953	0.25198	0.017067
1.03	13.5	1.2103	0.26292	0.0211
1.08	13.77	1.2323	0.27165	0.01867
1.13	13.94	1.2438	0.28031	0.024515
1.18	14.2	1.2567	0.28594	0.022941
1.23	14.37	1.2746	0.29177	0.019796
1.28	14.54	1.2706	0.29709	0.024531
1.33	14.72	1.2726	0.30022	0.02315
1.37	14.85	1.2698	0.30075	0.023619
1.42	14.96	1.2742	0.30008	0.022755
1.47	15.05	1.2605	0.30615	0.025782
1.52	15.13	1.2698	0.30637	0.025609
1.57	15.24	1.2742	0.30321	0.020767
1.62	15.28	1.2632	0.30279	0.020513
1.67	15.28	1.2674	0.29907	0.016483
1.72	15.32	1.2717	0.29932	0.016087
1.77	15.32	1.2598	0.29813	0.016414
1.82	15.32	1.2632	0.29248	0.011007
1.87	15.34	1.2656	0.28587	0.00078229
1.91	15.3	1.2503	0.28468	0.0011645
1.96	15.24	1.2347	0.2786	0.0051089
2.01	15.15	1.2271	0.27138	0.0052584
2.06	15.03	1.2135	0.261	-0.0030861
2.11	14.89	1.2002	0.25632	-0.0030809
2.16	14.76	1.1662	0.2449	-0.0026667
2.21	14.58	1.1391	0.236	0.00018273
2.26	14.39	1.1285	0.22929	-0.0037191
2.31	14.18	1.1132	0.22135	-0.0049679
2.36	13.96	1.0847	0.2157	0.00057464
2.41	13.72	1.0532	0.20955	0.0095021
2.45	13.44	1.0447	0.20397	0.0066134
2.5	13.18	1.0235	0.19825	0.012839
2.55	12.92	1.0076	0.19426	0.015588
2.6	12.58	0.99791	0.19235	0.025052
2.65	12.29	0.99066	0.19073	0.03177
2.7	11.97	0.9819	0.18688	0.029518
2.75	11.65	0.97175	0.18312	0.029612
2.8	11.28	0.95966	0.17582	0.029335
2.85	10.92	0.94823	0.16995	0.028991
2.9	10.54	0.94203	0.16364	0.024852
2.95	10.16	0.92685	0.15714	0.022011
2.99	9.803	0.91383	0.14842	0.019438
3.04	9.405	0.88529	0.13882	0.018418
3.09	9.015	0.85901	0.12961	0.019119
3.14	8.653	0.81447	0.11665	0.020581
3.19	8.253	0.79496	0.10657	0.014036
3.24	7.836	0.74887	0.097895	0.015335
3.29	7.402	0.71399	0.087172	0.015962
3.34	7.027	0.68483	0.079704	0.014633
3.39	6.653	0.63832	0.071125	0.014419
3.44	6.25	0.60671	0.063867	0.014985
3.49	5.856	0.5738	0.05412	0.0098275
3.53	5.426	0.531	0.045594	0.010477
3.58	5.097	0.50449	0.041677	0.0074331
3.63	4.714	0.47018	0.034772	0.007831
3.68	4.339	0.43732	0.02924	0.007941
3.73	3.986	0.39688	0.024247	0.010363
3.78	3.592	0.36001	0.019284	0.0065336
3.83	3.287	0.30628	0.013826	0.011113
3.88	2.898	0.28988	0.0094361	0.0085576
3.93	2.616	0.24787	0.0072667	0.0088606
3.98	2.296	0.21086	0.0045581	0.0069111
4.03	1.957	0.18934	0.0014851	0.0033448
4.07	1.685	0.14702	-0.00050613	0.0062798
4.12	1.393	0.1248	-0.0012174	0.0050408
4.17	1.136	0.097781	-0.0019273	0.0023138
4.22	0.8997	0.078676	-0.0034941	0.001388
4.27	0.657	0.065888	-0.0027628	0.0006829
4.32	0.4402	0.027146	-0.0037109	0.0067911
4.37	0.2642	0.025344	-0.0033485	-0.00016754
4.42	0.0801	-0.0076924	-0.0034868	0.0020019
4.47	-0.06494	-0.011468	-0.003347	4.9357e-05
4.52	-0.1872	-0.030671	-0.0042358	-0.000637
4.57	-0.3632	-0.06027	-0.0039221	0.0030108
4.61	-0.4887	-0.058793	-0.0032951	0.00072574
4.66	-0.5327	-0.076261	-0.0030221	0.00043603
4.71	-0.5832	-0.06503	-0.0026673	-0.0019538
4.76	-0.637	-0.090519	-0.0028063	-0.00064856
4.81	-0.6842	-0.097678	-0.0031745	0.00040495
4.86	-0.7347	-0.098046	-0.0019568	-0.0016921
4.91	-0.7494	-0.11024	-0.0033905	-0.00083411
4.96	-0.7315	-0.094834	-0.001197	-0.0049345
5.01	-0.7152	-0.10909	-0.002379	2.7407e-05
5.06	-0.7266	-0.10957	-0.0013688	-0.0017393
5.11	-0.7054	-0.10202	-0.0032816	-0.0031491
5.15	-0.6207	-0.093105	-0.0024367	-0.0027421
5.2	-0.5196	-0.089427	-0.0037428	-0.002211
5.25	-0.4235	-0.075324	-0.0029534	-0.0033017
5.3	-0.2198	-0.061386	-0.0029164	-0.0034754
5.35	-0.0519	-0.057539	-0.0035374	0.0015975
5.4	0.1029	-0.023998	-0.0052624	-0.0035838
5.45	0.318	-0.00033243	-0.0046103	-0.0016377
5.5	0.6032	0.015707	-0.003499	0.00060033
5.55	0.8541	0.048651	-0.0050924	-0.0026817
5.6	1.102	0.069842	-0.0022433	-0.002781
5.65	1.377	0.086495	-0.0039674	-0.0026989
5.69	1.643	0.11023	-0.002974	0.000314
5.74	1.978	0.14586	-0.0016344	-0.0023332
5.79	2.315	0.18119	0.00044552	-0.0025402
5.84	2.685	0.21831	0.0019493	-0.0025336
5.89	3.036	0.25977	0.0052687	-0.0042364
5.94	3.407	0.28668	0.0083692	0.00013741
5.99	3.739	0.31837	0.011563	-0.00034554
6.04	4.106	0.35993	0.015159	0.003651
6.09	4.507	0.40244	0.021368	0.0023442
6.14	4.907	0.43658	0.023952	0.0018153
6.19	5.287	0.4736	0.030477	0.0023579
6.23	5.666	0.51463	0.037284	0.0021798
