% Time() Angle(deg) Cn Ct Cm
0	8.612	0.83932	0.11434	0.011717
0.05	8.88	0.868	0.11945	0.009247
0.1	9.202	0.89321	0.1265	0.007968
0.15	9.52	0.92457	0.13736	0.010207
0.2	9.802	0.94498	0.14861	0.011176
0.25	10.08	0.97556	0.15422	0.0097233
0.29	10.38	0.98344	0.1612	0.015339
0.34	10.69	1.0183	0.17504	0.014556
0.39	10.98	1.0361	0.17993	0.013413
0.44	11.25	1.0636	0.19133	0.016674
0.49	11.54	1.0808	0.19978	0.015741
0.54	11.82	1.1095	0.20983	0.01799
0.59	12.1	1.1216	0.22096	0.01965
0.64	12.35	1.1462	0.22833	0.019342
0.69	12.62	1.1724	0.24251	0.022443
0.74	12.9	1.1962	0.24773	0.019557
0.79	13.17	1.2035	0.26144	0.024474
0.83	13.43	1.2155	0.27004	0.023349
0.88	13.66	1.2346	0.27666	0.025474
0.93	13.87	1.2359	0.28232	0.029166
0.98	14.1	1.2442	0.28757	0.025992
1.03	14.31	1.2546	0.29302	0.024987
1.08	14.52	1.2457	0.29463	0.028577
1.13	14.74	1.2568	0.30063	0.025388
1.18	14.84	1.2552	0.2987	0.022703
1.23	15	1.2648	0.29932	0.019341
1.28	15.18	1.2741	0.30047	0.013248
1.33	15.35	1.2708	0.29689	0.010692
1.37	15.5	1.2495	0.29243	0.0093722
1.42	15.56	1.2351	0.28519	0.0084742
1.47	15.66	1.2422	0.28233	-0.0036234
1.52	15.77	1.2455	0.26076	-0.024279
1.57	15.84	1.1947	0.23866	-0.026872
1.62	15.91	1.172	0.22067	-0.041134
1.67	15.98	1.104	0.19925	-0.038503
1.72	16.03	1.0515	0.19079	-0.031752
1.77	16.08	1.0242	0.19016	-0.023207
1.82	16.11	1.0284	0.1792	-0.036955
1.87	16.14	0.98702	0.16724	-0.033978
1.91	16.11	0.95341	0.16757	-0.025893
1.96	16.13	0.96608	0.16607	-0.02933
2.01	16.11	0.95332	0.17155	-0.018594
2.06	16.11	0.98697	0.17613	-0.023921
2.11	16.1	0.98603	0.18585	-0.014442
2.16	15.98	1.0283	0.19113	-0.022703
2.21	15.88	1.0161	0.19504	-0.012901
2.26	15.79	1.0138	0.19968	-0.0094753
2.31	15.71	1.0316	0.1967	-0.015109
2.36	15.56	1.0276	0.18758	-0.025482
2.41	15.39	1.0157	0.19341	-0.016615
2.45	15.21	1.0294	0.19569	-0.011689
2.5	15.06	1.0564	0.19732	-0.014774
2.55	14.87	1.0666	0.20361	-0.015246
2.6	14.66	1.0559	0.21148	0.0038014
2.65	14.44	1.0859	0.21762	0.0035728
2.7	14.23	1.0886	0.21923	0.0061808
2.75	14.01	1.1021	0.22205	0.010472
2.8	13.81	1.0988	0.23094	0.021293
2.85	13.58	1.1094	0.23382	0.024222
2.9	13.27	1.1202	0.23562	0.026815
2.95	12.99	1.1251	0.23538	0.025504
2.99	12.75	1.1343	0.23118	0.022456
3.04	12.49	1.1227	0.22487	0.024185
3.09	12.21	1.1126	0.21933	0.021985
3.14	11.93	1.0958	0.20898	0.020374
3.19	11.63	1.0741	0.2026	0.020927
3.24	11.34	1.0599	0.19128	0.017737
3.29	11.06	1.0496	0.18374	0.011716
3.34	10.78	1.0053	0.17426	0.017437
3.39	10.46	0.98173	0.16635	0.017935
3.44	10.16	0.96685	0.15799	0.015186
3.49	9.876	0.94633	0.15063	0.016074
3.53	9.583	0.92755	0.14286	0.012318
3.58	9.284	0.89734	0.13353	0.013134
3.63	8.988	0.86952	0.12454	0.013538
3.68	8.672	0.83315	0.11635	0.014413
3.73	8.409	0.81592	0.10805	0.01133
3.78	8.106	0.79421	0.10118	0.0086176
3.83	7.828	0.76991	0.095558	0.0087909
3.88	7.534	0.73714	0.089688	0.011138
3.93	7.289	0.70804	0.079793	0.011884
3.98	7.02	0.68945	0.073999	0.0071575
4.03	6.776	0.66559	0.068985	0.0091324
4.07	6.535	0.63441	0.064387	0.013483
4.12	6.303	0.61817	0.058534	0.0091516
4.17	6.096	0.58425	0.053611	0.0092699
4.22	5.888	0.5772	0.050571	0.0077959
4.27	5.723	0.54317	0.045923	0.011644
4.32	5.483	0.53562	0.042649	0.006118
4.37	5.345	0.51138	0.039847	0.0099288
4.42	5.217	0.50898	0.038446	0.0068496
4.47	5.094	0.49024	0.03479	0.0065742
4.52	4.943	0.47589	0.033287	0.0082996
4.57	4.795	0.46876	0.032792	0.0066437
4.61	4.662	0.45382	0.0289	0.0059513
4.66	4.608	0.4325	0.027441	0.0067817
4.71	4.543	0.43556	0.025961	0.0037455
4.76	4.452	0.42335	0.023265	0.0053523
4.81	4.428	0.41071	0.022742	0.0067233
4.86	4.368	0.41098	0.023259	0.0080567
4.91	4.339	0.40615	0.022836	0.0059589
4.96	4.327	0.40947	0.022342	0.0059765
5.01	4.304	0.40987	0.022879	0.0039837
5.06	4.287	0.39734	0.021232	0.0058575
5.11	4.285	0.40524	0.022515	0.0058938
5.15	4.303	0.39979	0.023	0.008227
5.2	4.303	0.42092	0.023149	0.0031904
5.25	4.326	0.40919	0.022979	0.0034799
5.3	4.377	0.41215	0.022644	0.0044186
5.35	4.477	0.41885	0.022975	0.0057183
5.4	4.576	0.42758	0.0255	0.0087795
5.45	4.694	0.44498	0.027358	0.0066689
5.5	4.827	0.46216	0.028394	-0.0009615
5.55	4.998	0.46745	0.030514	0.0036924
5.6	5.175	0.48223	0.033498	0.0088555
5.65	5.381	0.51244	0.038836	0.0050051
5.69	5.584	0.53424	0.041145	0.0051268
5.74	5.777	0.55295	0.046649	0.0082496
5.79	5.979	0.57065	0.049036	0.0081733
5.84	6.2	0.5972	0.053119	0.0061764
5.89	6.436	0.6293	0.059523	0.0047698
5.94	6.706	0.64707	0.062533	0.0064832
5.99	6.954	0.67468	0.070861	0.0091036
6.04	7.224	0.69737	0.075542	0.0085014
6.09	7.505	0.72159	0.082408	0.0084696
6.14	7.769	0.75215	0.087937	0.0062463
6.19	8.004	0.77595	0.092562	0.0071442
6.23	8.303	0.8127	0.10043	0.0034739
