% Time() Angle(deg) Cn Ct Cm
0	15.23	1.2699	0.27324	0.0094104
0.05	15.51	1.2734	0.28086	0.0070042
0.1	15.8	1.2818	0.28783	0.0038268
0.15	16.13	1.2965	0.29567	0.0044465
0.2	16.46	1.3182	0.30312	0.00092869
0.25	16.8	1.3403	0.31722	-0.00087557
0.29	17.15	1.3599	0.33182	0.00048119
0.34	17.52	1.4113	0.34939	-0.0021339
0.39	17.87	1.4641	0.36616	-0.0098373
0.44	18.2	1.5071	0.38587	-0.0081385
0.49	18.63	1.5477	0.40879	-0.009363
0.54	18.97	1.6145	0.43332	-0.012626
0.59	19.31	1.6624	0.45747	-0.012097
0.64	19.72	1.7375	0.48366	-0.019725
0.69	20.07	1.7881	0.50897	-0.024926
0.74	20.46	1.8406	0.53249	-0.024563
0.79	20.85	1.8863	0.55297	-0.033763
0.83	21.22	1.9355	0.57496	-0.041654
0.88	21.59	1.972	0.5923	-0.050987
0.93	21.93	1.9935	0.60226	-0.059012
0.98	22.29	1.9944	0.60734	-0.070509
1.03	22.65	2.0197	0.60576	-0.091092
1.08	22.96	2.0181	0.60175	-0.10459
1.13	23.31	2.0224	0.58447	-0.12357
1.18	23.64	2.0103	0.56247	-0.13947
1.23	23.91	2.0271	0.5291	-0.16849
1.28	24.22	2.0504	0.48585	-0.19788
1.33	24.51	2.09	0.43354	-0.23329
1.37	24.75	2.1564	0.37529	-0.27562
1.42	25	2.2196	0.31245	-0.31664
1.47	25.24	2.2849	0.245	-0.35542
1.52	25.44	2.3828	0.16729	-0.39954
1.57	25.62	2.3968	0.085875	-0.4232
1.62	25.8	2.3355	-0.0040931	-0.44445
1.67	25.94	2.2953	-0.042948	-0.45025
1.72	26.09	2.2504	-0.06582	-0.45059
1.77	26.17	2.1413	-0.10901	-0.45589
1.82	26.3	2.0349	-0.139	-0.44599
1.87	26.38	1.9212	-0.17766	-0.44427
1.91	26.43	1.7781	-0.19935	-0.42253
1.96	26.53	1.6703	-0.22928	-0.42014
2.01	26.6	1.5863	-0.25645	-0.43214
2.06	26.65	1.5566	-0.2639	-0.43288
2.11	26.7	1.4926	-0.26478	-0.42842
2.16	26.77	1.473	-0.25186	-0.42501
2.21	26.81	1.3565	-0.20736	-0.34974
2.26	26.82	1.3354	-0.16307	-0.30032
2.31	26.84	1.2529	-0.11281	-0.22598
2.36	26.86	1.2366	-0.066344	-0.17197
2.41	26.86	1.2568	-0.022093	-0.13798
2.45	26.86	1.3053	0.01095	-0.11469
2.5	26.84	1.3847	0.031907	-0.11473
2.55	26.78	1.4961	0.046357	-0.12039
2.6	26.69	1.538	0.050611	-0.12489
2.65	26.55	1.6217	0.051885	-0.1453
2.7	26.42	1.6104	0.04905	-0.15657
2.75	26.25	1.6436	0.030446	-0.19124
2.8	26.03	1.6958	0.011694	-0.23231
2.85	25.79	1.7189	-0.0076191	-0.27179
2.9	25.49	1.698	-0.026503	-0.29406
2.95	25.21	1.6604	-0.041174	-0.29792
2.99	24.91	1.558	-0.050553	-0.27913
3.04	24.55	1.4877	-0.06825	-0.25956
3.09	24.23	1.4504	-0.084369	-0.24929
3.14	23.95	1.4134	-0.096466	-0.23119
3.19	23.65	1.3748	-0.10403	-0.21557
3.24	23.35	1.3576	-0.10678	-0.20946
3.29	23.05	1.3168	-0.096871	-0.18044
3.34	22.78	1.3418	-0.085642	-0.17747
3.39	22.5	1.3143	-0.073232	-0.16078
3.44	22.24	1.3015	-0.067773	-0.15995
3.49	21.96	1.2135	-0.058079	-0.13654
3.53	21.69	1.1772	-0.056749	-0.13841
3.58	21.4	1.1255	-0.052535	-0.12617
3.63	21.11	1.0377	-0.053023	-0.11414
3.68	20.8	0.9405	-0.059121	-0.1039
3.73	20.45	0.88263	-0.056712	-0.098349
3.78	20.12	0.81641	-0.056199	-0.090615
3.83	19.78	0.74757	-0.055234	-0.083738
3.88	19.43	0.697	-0.052401	-0.074786
3.93	19.05	0.62919	-0.053051	-0.063955
3.98	18.7	0.61689	-0.055618	-0.069145
4.02	18.3	0.58309	-0.055712	-0.066831
4.07	17.92	0.53334	-0.055565	-0.05351
4.12	17.55	0.48432	-0.056289	-0.04419
4.17	17.19	0.47695	-0.054265	-0.042582
4.22	16.82	0.43961	-0.056171	-0.033069
4.27	16.46	0.44204	-0.050886	-0.02771
4.32	16.15	0.44639	-0.048382	-0.028036
4.37	15.84	0.45082	-0.040806	-0.026203
4.42	15.56	0.4604	-0.038103	-0.019491
4.47	15.31	0.45274	-0.032193	-0.012291
4.52	15.06	0.44773	-0.026845	-0.0053901
4.56	14.82	0.44316	-0.019112	0.0046066
4.61	14.6	0.44381	-0.011776	0.010879
4.66	14.42	0.44019	-0.0020168	0.019427
4.71	14.23	0.41384	0.0075381	0.034067
4.76	14.03	0.39948	0.020613	0.045927
4.81	13.9	0.40573	0.032207	0.054485
4.86	13.7	0.40689	0.041253	0.065489
4.91	13.51	0.4265	0.049872	0.059315
4.96	13.38	0.46044	0.056861	0.050943
5.01	13.21	0.48586	0.062479	0.042457
5.06	13.08	0.50793	0.065309	0.033425
5.1	12.95	0.52663	0.069947	0.030319
5.15	12.84	0.52115	0.073439	0.032443
5.2	12.74	0.52402	0.078607	0.033871
5.25	12.65	0.56005	0.081852	0.027797
5.3	12.62	0.57286	0.081172	0.026825
5.35	12.59	0.6001	0.089825	0.02637
5.4	12.57	0.63821	0.096655	0.022855
5.45	12.56	0.67961	0.10573	0.019935
5.5	12.61	0.70711	0.11166	0.021831
5.55	12.62	0.73988	0.12126	0.027281
5.6	12.69	0.77679	0.13202	0.029222
5.64	12.76	0.83082	0.13818	0.030102
5.69	12.83	0.88181	0.14938	0.030348
5.74	12.93	0.96239	0.16143	0.022409
5.79	13.07	0.99547	0.17488	0.027142
5.84	13.19	1.0534	0.18724	0.023452
5.89	13.35	1.1163	0.19864	0.019959
5.94	13.5	1.1558	0.20963	0.019858
5.99	13.71	1.1937	0.21814	0.017147
6.04	13.91	1.2129	0.23095	0.017192
6.09	14.11	1.2466	0.23992	0.013557
6.14	14.37	1.2406	0.24738	0.016959
6.18	14.6	1.288	0.25606	0.0020867
6.23	14.85	1.2677	0.26309	0.009975
