% Time() Angle(deg) Cn Ct Cm
0	11.5	1.0221	0.17719	0.0078145
0.05	11.72	1.0637	0.19356	0.0098587
0.1	11.96	1.0777	0.20624	0.019002
0.15	12.23	1.1136	0.21787	0.017602
0.2	12.52	1.1441	0.23046	0.020904
0.25	12.82	1.1585	0.24199	0.021472
0.29	13.08	1.1878	0.25108	0.018955
0.34	13.37	1.1917	0.26193	0.023107
0.39	13.69	1.2157	0.26942	0.019801
0.44	13.99	1.2302	0.27513	0.01872
0.49	14.32	1.2209	0.28494	0.024039
0.54	14.64	1.2393	0.28924	0.01701
0.59	14.98	1.2331	0.29069	0.014841
0.64	15.28	1.2699	0.29086	0.0020535
0.69	15.62	1.2575	0.27845	-0.014083
0.74	15.94	1.2545	0.2488	-0.045613
0.79	16.28	1.2356	0.2121	-0.070389
0.83	16.6	1.1066	0.17346	-0.063062
0.88	16.97	1.0069	0.15986	-0.051523
0.93	17.3	0.97885	0.1539	-0.042599
0.98	17.65	0.92775	0.14197	-0.040596
1.03	17.97	0.92268	0.14407	-0.040175
1.08	18.29	0.90248	0.14173	-0.035786
1.13	18.61	0.90934	0.14537	-0.035923
1.18	18.94	0.88196	0.13087	-0.039981
1.23	19.26	0.91795	0.13644	-0.044714
1.28	19.56	0.88945	0.13133	-0.041213
1.33	19.87	0.85517	0.1205	-0.037704
1.37	20.15	0.88113	0.12895	-0.041901
1.42	20.45	0.86035	0.11969	-0.042408
1.47	20.71	0.89973	0.12668	-0.048747
1.52	20.98	0.86867	0.12321	-0.044555
1.57	21.25	0.88402	0.1222	-0.044641
1.62	21.48	0.96361	0.12125	-0.062471
1.67	21.72	0.9954	0.11527	-0.071934
1.72	21.95	0.93023	0.11266	-0.051719
1.77	22.12	0.94308	0.1141	-0.060899
1.82	22.33	0.93851	0.10966	-0.059755
1.87	22.5	0.97293	0.056273	-0.074369
1.91	22.69	0.91793	0.035822	-0.075717
1.96	22.83	0.9867	0.0064043	-0.088515
2.01	22.93	0.90809	-0.016785	-0.091251
2.06	23.1	0.8832	-0.011241	-0.077699
2.11	23.2	0.90013	-0.01309	-0.08438
2.16	23.34	0.89911	-0.008697	-0.079307
2.21	23.4	0.88067	-0.017401	-0.072416
2.26	23.49	0.85306	-0.028014	-0.078562
2.31	23.54	0.85616	-0.029135	-0.076625
2.36	23.62	0.85193	-0.025851	-0.07585
2.41	23.65	0.86465	-0.026986	-0.078138
2.45	23.65	0.85715	-0.029905	-0.081629
2.5	23.68	0.85205	-0.03062	-0.08016
2.55	23.67	0.84904	-0.038193	-0.084896
2.6	23.62	0.87365	-0.039591	-0.094471
2.65	23.53	0.8477	-0.042258	-0.091213
2.7	23.47	0.82492	-0.045544	-0.083205
2.75	23.39	0.82175	-0.044386	-0.083331
2.8	23.31	0.79895	-0.044701	-0.079072
2.85	23.15	0.78857	-0.046938	-0.077971
2.9	23.01	0.79397	-0.048351	-0.078479
2.95	22.83	0.78359	-0.046741	-0.079691
2.99	22.68	0.78856	-0.045043	-0.078699
3.04	22.5	0.78897	-0.044133	-0.078794
3.09	22.33	0.76134	-0.046313	-0.073288
3.14	22.09	0.73431	-0.045449	-0.067418
3.19	21.88	0.72619	-0.047795	-0.067082
3.24	21.65	0.70611	-0.048052	-0.065783
3.29	21.39	0.7002	-0.04924	-0.069255
3.34	21.14	0.69865	-0.037379	-0.061213
3.39	20.87	0.71508	-0.040752	-0.06301
3.44	20.63	0.69914	-0.045634	-0.069811
3.49	20.33	0.71509	-0.035803	-0.063691
3.53	20.01	0.6865	-0.044292	-0.064969
3.58	19.69	0.71165	-0.065074	-0.080554
3.63	19.41	0.68634	-0.054753	-0.068125
3.68	19.11	0.69458	-0.059304	-0.072409
3.73	18.78	0.70949	-0.053676	-0.079099
3.78	18.48	0.67921	-0.054084	-0.067593
3.83	18.12	0.73019	-0.049074	-0.083398
3.88	17.84	0.70345	-0.039489	-0.063713
3.93	17.47	0.73645	-0.021765	-0.063236
3.98	17.15	0.82527	0.0073771	-0.070624
4.03	16.76	0.82842	0.013743	-0.067346
4.07	16.47	0.85454	0.030618	-0.061652
4.12	16.15	0.86751	0.03635	-0.070539
4.17	15.8	0.85249	0.039669	-0.056245
4.22	15.47	0.89907	0.067854	-0.052736
4.27	15.16	0.91164	0.090818	-0.021269
4.32	14.85	0.95708	0.12428	-0.024117
4.37	14.56	1.0009	0.15507	-0.0069354
4.42	14.22	0.98839	0.16982	0.012899
4.47	13.88	1.0118	0.17819	0.014356
4.52	13.58	1.0091	0.17796	0.014657
4.57	13.26	1.0304	0.17916	0.01221
4.61	12.99	1.0136	0.17259	0.012789
4.66	12.68	1.0003	0.16417	0.011602
4.71	12.44	0.98342	0.15495	0.011411
4.76	12.21	0.9726	0.14759	0.0059339
4.81	11.92	0.95411	0.14407	0.0088746
4.86	11.67	0.93379	0.13719	0.0077485
4.91	11.46	0.9253	0.13184	0.0070417
4.96	11.28	0.90986	0.12742	0.0070681
5.01	11.08	0.90308	0.12245	0.0050755
5.06	10.89	0.8978	0.12202	0.0067022
5.11	10.74	0.90583	0.12574	0.0050688
5.15	10.58	0.91517	0.11602	-0.005817
5.2	10.44	0.86987	0.11055	0.0038135
5.25	10.32	0.86965	0.10809	0.0013937
5.3	10.22	0.85403	0.11072	0.0067786
5.35	10.11	0.85466	0.10691	0.0020468
5.4	10.08	0.84276	0.1059	0.0047414
5.45	9.996	0.83779	0.10523	0.0035647
5.5	9.95	0.84219	0.10893	0.0059993
5.55	9.888	0.84309	0.10449	0.0064719
5.6	9.893	0.84253	0.10724	0.0051479
5.65	9.855	0.84892	0.10771	0.0042213
5.69	9.864	0.8577	0.10996	0.0027801
5.74	9.848	0.85717	0.11348	0.0071451
5.79	9.913	0.8839	0.12285	0.0064664
5.84	10.03	0.90536	0.12609	0.0019744
5.89	10.11	0.90473	0.13111	0.0074749
5.94	10.19	0.93403	0.12889	0.000403
5.99	10.32	0.9221	0.13431	0.005204
6.04	10.51	0.94296	0.13351	0.00014416
6.09	10.64	0.95169	0.15421	0.01212
6.14	10.83	0.97515	0.16795	0.018682
6.19	11.03	1.0156	0.17509	0.014024
6.23	11.25	1.0317	0.18672	0.017244
