% Time() Angle(deg) Cn Ct Cm
0	3.791	0.32129	0.0097324	-0.0069392
0.05	4.226	0.3525	0.011703	-0.0042064
0.1	4.576	0.39524	0.01726	-0.0045697
0.15	5.004	0.43379	0.021921	-0.0046517
0.2	5.41	0.47126	0.028174	-0.0037802
0.25	5.812	0.50029	0.031429	-0.0013471
0.29	6.212	0.53519	0.038246	0.0010477
0.34	6.6	0.58142	0.047177	-0.0025198
0.39	6.99	0.6225	0.053293	-0.0049994
0.44	7.392	0.65857	0.061129	-0.0014791
0.49	7.801	0.69728	0.069346	-0.0017549
0.54	8.164	0.73271	0.077027	0.00089249
0.59	8.577	0.77565	0.085882	-0.00056834
0.64	8.944	0.79857	0.097266	0.0026209
0.69	9.313	0.84546	0.1062	-0.00069842
0.74	9.702	0.87813	0.11593	-0.00015431
0.79	10.03	0.92663	0.12792	-0.00092264
0.83	10.38	0.95125	0.13945	0.003219
0.88	10.66	0.97479	0.14897	0.0034314
0.93	11.05	1.0016	0.15808	0.0044546
0.98	11.38	1.0332	0.16987	0.0043423
1.03	11.62	1.0658	0.18247	0.0048683
1.08	11.91	1.0879	0.19136	0.0052025
1.13	12.18	1.1059	0.20093	0.0062423
1.18	12.4	1.1335	0.21139	0.006634
1.23	12.67	1.1512	0.22186	0.011206
1.28	12.92	1.17	0.23055	0.012059
1.33	13.09	1.1884	0.2395	0.012462
1.37	13.29	1.1942	0.24786	0.013903
1.42	13.48	1.2102	0.25849	0.016747
1.47	13.6	1.2277	0.263	0.016193
1.52	13.74	1.2286	0.26839	0.019135
1.57	13.82	1.2382	0.27497	0.020658
1.62	13.94	1.2543	0.27942	0.018488
1.67	14.04	1.2585	0.28357	0.022151
1.72	14.07	1.2485	0.28333	0.022104
1.77	14.12	1.2419	0.2839	0.024584
1.82	14.14	1.2408	0.28299	0.023946
1.87	14.15	1.2433	0.28325	0.023081
1.91	14.17	1.2336	0.28349	0.026417
1.96	14.19	1.2379	0.28147	0.023744
2.01	14.15	1.2332	0.281	0.023683
2.06	14.15	1.2278	0.27982	0.024911
2.11	14.11	1.2158	0.27748	0.02448
2.16	14.02	1.2094	0.27398	0.026573
2.21	13.93	1.1898	0.26914	0.027027
2.26	13.82	1.1829	0.26653	0.027022
2.31	13.63	1.1583	0.25913	0.031885
2.36	13.49	1.1562	0.25284	0.024556
2.41	13.26	1.1394	0.24815	0.02738
2.45	13.08	1.1354	0.24064	0.025539
2.5	12.82	1.1115	0.23518	0.025535
2.55	12.66	1.0934	0.22987	0.025865
2.6	12.34	1.0733	0.22211	0.027239
2.65	12.07	1.0464	0.21207	0.032822
2.7	11.76	1.0402	0.20297	0.025665
2.75	11.45	0.99909	0.19068	0.028903
2.8	11.15	0.98631	0.18162	0.02585
2.85	10.81	0.9542	0.17404	0.027943
2.9	10.47	0.93462	0.16516	0.023842
2.95	10.13	0.91711	0.15654	0.025784
2.99	9.744	0.8986	0.14944	0.022402
3.04	9.411	0.86357	0.14042	0.024283
3.09	9.028	0.84806	0.13114	0.023407
3.14	8.641	0.80944	0.12369	0.024384
3.19	8.277	0.79358	0.1141	0.02138
3.24	7.893	0.77492	0.10556	0.015792
3.29	7.494	0.72613	0.095277	0.01982
3.34	7.104	0.70288	0.084908	0.016692
3.39	6.748	0.66315	0.079062	0.014811
3.44	6.345	0.62976	0.070379	0.015571
3.49	5.908	0.59839	0.062937	0.016492
3.53	5.524	0.55505	0.05442	0.01417
3.58	5.147	0.52645	0.047741	0.012977
3.63	4.736	0.50053	0.040482	0.0089047
3.68	4.381	0.45342	0.034116	0.01357
3.73	3.973	0.41871	0.029552	0.0105
3.78	3.609	0.37603	0.022364	0.012679
3.83	3.249	0.33389	0.0177	0.01413
3.88	2.862	0.29773	0.013674	0.012078
3.93	2.537	0.2753	0.010629	0.0076175
3.98	2.128	0.24183	0.0069612	0.0061835
4.03	1.851	0.20728	0.0043436	0.0058114
4.07	1.465	0.17306	0.00219	0.0060503
4.12	1.165	0.15623	-0.00024496	0.0018614
4.17	0.8362	0.11687	-0.0016722	0.0043999
4.22	0.582	0.079114	-0.0027406	0.0058072
4.27	0.2887	0.047882	-0.0038397	0.0044895
4.32	0.01002	0.030154	-0.0042011	0.0038955
4.37	-0.1611	0.0072932	-0.0043867	0.0026333
4.42	-0.4447	-0.026411	-0.005449	0.0044679
4.47	-0.6239	-0.042505	-0.0044343	0.0032417
4.52	-0.7934	-0.075912	-0.0041849	0.0051102
4.57	-0.9873	-0.081204	-0.0037289	-0.00088912
4.61	-1.139	-0.10708	-0.0033849	0.00019109
4.66	-1.284	-0.1229	-0.0032124	0.00031514
4.71	-1.401	-0.13192	-0.0012151	-0.0012307
4.76	-1.478	-0.1522	-0.0017894	-0.00058497
4.81	-1.548	-0.1537	-0.00044707	-0.0042409
4.86	-1.6	-0.15604	-0.00018738	-0.0041648
4.91	-1.654	-0.17987	0.0019022	-0.0019997
4.96	-1.753	-0.17423	0.00049141	-0.0026939
5.01	-1.792	-0.17924	0.0016654	-0.0039005
5.06	-1.753	-0.18471	0.0016191	-0.004031
5.11	-1.779	-0.19051	0.0014559	-0.0035962
5.15	-1.771	-0.18402	0.0017594	-0.0066137
5.2	-1.727	-0.18888	0.0018029	-0.0046625
5.25	-1.732	-0.18231	0.0018115	-0.0071058
5.3	-1.669	-0.1773	0.0033494	-0.008565
5.35	-1.572	-0.17755	0.0028947	-0.00565
5.4	-1.462	-0.15594	0.0017545	-0.011486
5.45	-1.377	-0.13803	0.0020992	-0.0085293
5.5	-1.175	-0.13192	0.0010165	-0.0095156
5.55	-0.9515	-0.10918	-0.00098525	-0.008768
5.6	-0.7315	-0.10846	-0.0019898	-0.0061785
5.65	-0.5147	-0.085579	-0.0025052	-0.0067075
5.69	-0.2654	-0.066703	-0.0039351	-0.0066876
5.74	0.01491	-0.04883	-0.0040369	-0.0050408
5.79	0.305	-0.014824	-0.0036775	-0.007029
5.84	0.5478	-0.00016075	-0.0055643	-0.0050077
5.89	0.8867	0.036485	-0.004065	-0.0048779
5.94	1.182	0.068165	-0.0045477	-0.0073172
5.99	1.519	0.10206	-0.0046057	-0.0083604
6.04	1.872	0.14108	-0.0027701	-0.0085094
6.09	2.257	0.17495	-0.0019149	-0.0095503
6.14	2.621	0.20146	-0.00016071	-0.0054609
6.19	2.981	0.24357	0.0017141	-0.0097685
6.23	3.373	0.26367	0.0046026	-0.0029733
