% Time() Angle(deg) Cn Ct Cm
0	-0.9499	-0.16604	0.0026554	-0.0071532
0.05	-0.4936	-0.11075	-0.0015889	-0.0077795
0.1	0.01328	-0.069701	-0.0020246	-0.0061128
0.15	0.5087	-0.019319	-0.0043457	-0.0082811
0.2	0.9877	0.013152	-0.0057487	-0.0030292
0.25	1.452	0.058008	-0.0039396	-0.0017039
0.29	1.949	0.11093	-0.0035152	-0.0030583
0.34	2.481	0.15754	3.2513e-05	-0.0032885
0.39	2.969	0.20258	0.0012518	-0.0038517
0.44	3.41	0.2519	0.0052696	-0.002154
0.49	3.851	0.29737	0.0086176	-0.00071763
0.54	4.308	0.34288	0.012375	-0.0009537
0.59	4.748	0.37727	0.018342	0.0010772
0.64	5.16	0.42543	0.023102	0.00093981
0.69	5.509	0.46059	0.02827	0.00022361
0.74	5.898	0.50531	0.035331	0.0013713
0.79	6.274	0.5384	0.041915	0.0026433
0.83	6.646	0.57815	0.04874	0.0020774
0.88	6.965	0.6135	0.056683	0.003493
0.93	7.282	0.64514	0.064621	0.0066647
0.98	7.56	0.6744	0.072591	0.0066856
1.03	7.832	0.70343	0.079528	0.0052794
1.08	8.095	0.71967	0.084451	0.0092061
1.13	8.358	0.7451	0.089942	0.0072302
1.18	8.575	0.76608	0.09563	0.0081704
1.23	8.761	0.79372	0.10251	0.0098728
1.28	8.956	0.81352	0.10811	0.0071803
1.33	9.138	0.82379	0.11522	0.010746
1.37	9.268	0.85155	0.11926	0.0098312
1.42	9.405	0.86067	0.12569	0.012715
1.47	9.477	0.85786	0.12918	0.016174
1.52	9.538	0.86338	0.12798	0.017184
1.57	9.596	0.87256	0.13159	0.013801
1.62	9.614	0.8762	0.13331	0.013944
1.67	9.591	0.88542	0.13494	0.012114
1.72	9.604	0.88722	0.13727	0.012928
1.77	9.598	0.89348	0.13747	0.010796
1.82	9.593	0.88812	0.13724	0.014747
1.87	9.578	0.89279	0.13718	0.013805
1.91	9.496	0.87875	0.13418	0.014273
1.96	9.353	0.86187	0.13352	0.017624
2.01	9.232	0.85952	0.1283	0.018106
2.06	9.054	0.84206	0.1265	0.018336
2.11	8.861	0.8344	0.12216	0.016671
2.16	8.662	0.80888	0.11757	0.018786
2.21	8.409	0.7863	0.11259	0.020388
2.26	8.174	0.76964	0.10542	0.01694
2.31	7.882	0.73756	0.097915	0.015929
2.36	7.557	0.71713	0.089262	0.014726
2.41	7.221	0.68806	0.083847	0.013083
2.45	6.857	0.66316	0.077218	0.015097
2.5	6.501	0.62424	0.068594	0.014464
2.55	6.114	0.57946	0.060938	0.016714
2.6	5.725	0.54452	0.05442	0.017426
2.65	5.288	0.51589	0.046488	0.011939
2.7	4.873	0.4679	0.037946	0.015058
2.75	4.431	0.42826	0.033824	0.014667
2.8	4.004	0.38434	0.027291	0.014989
2.85	3.562	0.3539	0.020709	0.0096189
2.9	3.067	0.29738	0.013917	0.013834
2.95	2.646	0.25897	0.010501	0.01241
2.99	2.13	0.22032	0.0062442	0.0084295
3.04	1.698	0.1643	0.0032708	0.011409
3.09	1.208	0.12833	0.0011909	0.0088515
3.14	0.7906	0.087937	-0.0018183	0.0056885
3.19	0.2642	0.034757	-0.0028304	0.0076948
3.24	-0.1823	-0.020624	-0.0053706	0.008663
3.29	-0.6679	-0.060487	-0.003484	0.0063051
3.34	-1.167	-0.10219	-0.0021285	0.0026825
3.39	-1.649	-0.16831	-0.0020307	0.0076884
3.44	-2.17	-0.21462	0.0010917	0.0083931
3.49	-2.623	-0.25479	0.0037538	0.0054848
3.53	-3.11	-0.29282	0.008459	0.0020068
3.58	-3.566	-0.34199	0.013268	0.0033659
3.63	-4.036	-0.38453	0.01824	0.00065177
3.68	-4.5	-0.42804	0.023584	0.00099786
3.73	-4.945	-0.47194	0.030746	0.00096386
3.78	-5.33	-0.51567	0.037277	0.0010821
3.83	-5.754	-0.55099	0.044823	0.00010775
3.88	-6.129	-0.59845	0.051723	0.0016242
3.93	-6.514	-0.63496	0.060387	0.00033668
3.98	-6.869	-0.65632	0.069424	-0.001117
4.03	-7.182	-0.69835	0.078279	-0.00014042
4.07	-7.496	-0.73535	0.086685	-0.0020046
4.12	-7.805	-0.75263	0.093566	-0.0041568
4.17	-8.145	-0.79136	0.1001	0.0015179
4.22	-8.36	-0.80887	0.10871	-0.0015899
4.27	-8.565	-0.83685	0.11598	-0.003009
4.32	-8.81	-0.8492	0.12438	-0.0071555
4.37	-9.035	-0.87823	0.13205	-0.0051093
4.42	-9.185	-0.88666	0.13484	-0.0056357
4.47	-9.348	-0.89881	0.13816	-0.0045907
4.52	-9.475	-0.90722	0.14357	-0.0085192
4.57	-9.581	-0.91381	0.15076	-0.011356
4.61	-9.685	-0.93434	0.15224	-0.0078284
4.66	-9.772	-0.94835	0.15582	-0.0057559
4.71	-9.818	-0.9503	0.15925	-0.0059467
4.76	-9.822	-0.94463	0.16102	-0.0093458
4.81	-9.888	-0.94178	0.16077	-0.010145
4.86	-9.873	-0.95452	0.16208	-0.0078286
4.91	-9.847	-0.94963	0.16122	-0.011123
4.96	-9.805	-0.94503	0.16204	-0.011155
5.01	-9.802	-0.9446	0.16102	-0.011992
5.06	-9.77	-0.94686	0.16092	-0.00954
5.11	-9.641	-0.93382	0.15808	-0.011561
5.15	-9.473	-0.92199	0.15269	-0.012241
5.2	-9.29	-0.90255	0.15159	-0.012442
5.25	-9.117	-0.8868	0.14805	-0.015626
5.3	-8.931	-0.88448	0.144	-0.012897
5.35	-8.713	-0.85915	0.13772	-0.01291
5.4	-8.436	-0.83213	0.12943	-0.015306
5.45	-8.13	-0.80217	0.122	-0.016249
5.5	-7.742	-0.78173	0.11392	-0.01501
5.55	-7.442	-0.74167	0.10254	-0.01533
5.6	-7.112	-0.71808	0.096584	-0.014355
5.65	-6.754	-0.69043	0.088302	-0.014298
5.69	-6.376	-0.65292	0.078148	-0.014067
5.74	-5.946	-0.62189	0.070359	-0.012546
5.79	-5.53	-0.57959	0.060552	-0.012782
5.84	-5.124	-0.541	0.054113	-0.01443
5.89	-4.688	-0.50667	0.047234	-0.013852
5.94	-4.264	-0.47241	0.039454	-0.01112
5.99	-3.826	-0.43834	0.033287	-0.010287
6.04	-3.375	-0.39275	0.027546	-0.011625
6.09	-2.937	-0.34849	0.022783	-0.012677
6.14	-2.442	-0.31036	0.016642	-0.013455
6.19	-1.968	-0.26487	0.010785	-0.012125
6.23	-1.488	-0.23026	0.0058455	-0.0081915
