% Time() Angle(deg) Cn Ct Cm
0	-1.175	-0.16294	0.00048676	-0.0064529
0.05	-0.8993	-0.14241	-0.0010205	-0.0035429
0.1	-0.65	-0.10864	-0.0019069	-0.0055024
0.15	-0.3925	-0.092922	-0.00265	-0.0016135
0.2	-0.09753	-0.057669	-0.0039358	-0.0006734
0.25	0.1991	-0.025656	-0.0025468	-0.0044229
0.29	0.4582	-0.0028481	-0.003008	-0.0031491
0.34	0.6896	0.024884	-0.0038764	-0.0043976
0.39	1.007	0.044047	-0.0059904	-0.00096937
0.44	1.255	0.07287	-0.0050011	-0.0024222
0.49	1.517	0.096992	-0.0027815	-0.0037598
0.54	1.791	0.12623	-0.0029982	-0.0010432
0.59	2.05	0.15063	-0.0016602	0.00033982
0.64	2.327	0.17832	0.00073455	-4.5293e-05
0.69	2.564	0.21218	0.0025349	-0.0010045
0.74	2.81	0.22689	0.0033805	0.0026663
0.79	3.012	0.25812	0.0056288	-2.564e-05
0.83	3.275	0.28798	0.0071128	0.000475
0.88	3.485	0.29743	0.0097828	0.0034708
0.93	3.695	0.31755	0.012476	0.0029126
0.98	3.874	0.33587	0.014776	0.0037523
1.03	4.113	0.36105	0.016973	0.0034601
1.08	4.293	0.38544	0.019217	0.0024826
1.13	4.483	0.39809	0.021372	0.0040147
1.18	4.62	0.41965	0.023285	0.0036613
1.23	4.777	0.43028	0.025973	0.0049978
1.28	4.907	0.45069	0.028716	0.0057523
1.33	5.053	0.47009	0.032471	0.0047251
1.37	5.176	0.47488	0.033376	0.0054238
1.42	5.261	0.4815	0.036288	0.0098239
1.47	5.358	0.50226	0.03793	0.0046542
1.52	5.452	0.51627	0.038166	0.0027029
1.57	5.538	0.51903	0.040102	0.0062982
1.62	5.657	0.52338	0.041879	0.007441
1.67	5.671	0.52866	0.041506	0.0065853
1.72	5.715	0.52606	0.04324	0.006546
1.77	5.759	0.53982	0.044822	0.0048608
1.82	5.785	0.54636	0.045338	0.0057277
1.87	5.802	0.53975	0.04454	0.0078645
1.91	5.78	0.53701	0.045661	0.0083312
1.96	5.817	0.54432	0.045521	0.0067589
2.01	5.775	0.5364	0.045463	0.0085896
2.06	5.79	0.53595	0.044762	0.0077826
2.11	5.773	0.53515	0.046383	0.009381
2.16	5.681	0.52805	0.044572	0.011249
2.21	5.584	0.52922	0.044426	0.0075713
2.26	5.506	0.52193	0.042694	0.006259
2.31	5.404	0.51484	0.040925	0.0068333
2.36	5.295	0.492	0.038567	0.0089642
2.41	5.168	0.47008	0.036466	0.010543
2.45	5.001	0.46837	0.03363	0.0081177
2.5	4.824	0.44682	0.030569	0.010346
2.55	4.649	0.4323	0.028753	0.008913
2.6	4.483	0.41828	0.025107	0.0082749
2.65	4.274	0.39653	0.023633	0.0072704
2.7	4.074	0.36951	0.019794	0.009748
2.75	3.841	0.35643	0.017893	0.0079786
2.8	3.636	0.33335	0.014937	0.0069205
2.85	3.397	0.32032	0.012682	0.0041561
2.9	3.174	0.3024	0.012515	0.0051544
2.95	2.919	0.26866	0.0092459	0.0055514
2.99	2.701	0.248	0.0064116	0.0045349
3.04	2.421	0.22173	0.0037906	0.0023314
3.09	2.118	0.20057	0.0026335	0.0022747
3.14	1.903	0.1593	-0.00066838	0.0024218
3.19	1.643	0.13966	-0.0014986	0.0014493
3.24	1.375	0.11559	-0.0010717	0.0025833
3.29	1.138	0.084718	-0.0033501	0.0048281
3.34	0.8215	0.061412	-0.0043065	0.0021956
3.39	0.6064	0.047018	-0.0036344	-0.00091807
3.44	0.3245	0.0027993	-0.0053153	0.0046496
3.49	0.04099	-0.012929	-0.0042321	0.0019121
3.53	-0.1921	-0.040563	-0.0036579	0.002136
3.58	-0.5033	-0.060987	-0.0042905	-0.0012584
3.63	-0.7396	-0.10715	-0.002807	0.0031237
3.68	-1.013	-0.12305	-0.0019467	-0.00040124
3.73	-1.289	-0.15151	-0.00016132	-0.00077397
3.78	-1.551	-0.17275	9.7037e-05	-0.0023953
3.83	-1.787	-0.20326	0.0025803	0.00024794
3.88	-2.011	-0.22481	0.0041869	-0.0020805
3.93	-2.273	-0.24412	0.0038126	-0.0015039
3.98	-2.504	-0.27351	0.0078504	-0.0021176
4.03	-2.716	-0.29367	0.011172	-0.0041059
4.07	-2.981	-0.3138	0.012487	-0.0018275
4.12	-3.17	-0.32664	0.01452	-0.0053621
4.17	-3.364	-0.34589	0.015953	-0.0044307
4.22	-3.533	-0.37299	0.017597	-0.0045977
4.27	-3.769	-0.38982	0.021308	-0.0047612
4.32	-3.913	-0.4009	0.023763	-0.0050675
4.37	-4.052	-0.42001	0.025929	-0.0027302
4.42	-4.189	-0.43797	0.03093	-0.0056106
4.47	-4.332	-0.45585	0.032946	-0.0070805
4.52	-4.475	-0.46037	0.033555	-0.0089549
4.57	-4.584	-0.47464	0.034483	-0.007134
4.61	-4.666	-0.49491	0.036681	-0.0021702
4.66	-4.762	-0.48909	0.03973	-0.0086416
4.71	-4.83	-0.50306	0.042317	-0.0060967
4.76	-4.885	-0.51366	0.041176	-0.0047961
4.81	-4.922	-0.50723	0.042443	-0.00876
4.86	-4.96	-0.51585	0.041889	-0.0081799
4.91	-5.022	-0.52765	0.043431	-0.0056404
4.96	-5.033	-0.52001	0.042918	-0.0057037
5.01	-5.049	-0.52608	0.045034	-0.0082808
5.06	-5.051	-0.53162	0.044704	-0.0070243
5.11	-5.053	-0.53231	0.04595	-0.0074694
5.15	-5.049	-0.54034	0.046481	-0.0069007
5.2	-5.044	-0.53452	0.045478	-0.0062406
5.25	-5.043	-0.53474	0.045657	-0.006152
5.3	-4.979	-0.53383	0.045911	-0.0061574
5.35	-4.919	-0.52143	0.043802	-0.0071153
5.4	-4.856	-0.51499	0.044032	-0.007593
5.45	-4.749	-0.49974	0.041188	-0.0086965
5.5	-4.617	-0.49024	0.041349	-0.010497
5.55	-4.492	-0.4875	0.036518	-0.0069286
5.6	-4.327	-0.46668	0.03597	-0.0096109
5.64	-4.157	-0.44701	0.032508	-0.0081478
5.69	-3.986	-0.43703	0.029429	-0.0045255
5.74	-3.812	-0.41758	0.026533	-0.0074514
5.79	-3.595	-0.39547	0.022602	-0.0056977
5.84	-3.39	-0.37732	0.021442	-0.0067813
5.89	-3.178	-0.35939	0.018508	-0.0058132
5.94	-2.946	-0.33791	0.017159	-0.0058229
5.99	-2.721	-0.31666	0.013236	-0.0060857
6.04	-2.46	-0.28826	0.010528	-0.003971
6.09	-2.211	-0.25961	0.0087212	-0.004732
6.14	-1.981	-0.22723	0.0047834	-0.0062495
6.18	-1.698	-0.21104	0.0025782	-0.0047555
6.23	-1.45	-0.19482	0.0016135	-0.0041044
