% Time() Angle(deg) Cn Ct Cm
0	8.672	0.8219	0.1021	0.0034584
0.05	9.097	0.87211	0.11558	0.0044996
0.1	9.508	0.90515	0.12706	0.0047272
0.15	9.901	0.94499	0.13967	0.0047263
0.2	10.35	0.97115	0.14925	0.0066305
0.25	10.73	1.0191	0.16332	0.008483
0.29	11.13	1.0411	0.17316	0.008796
0.34	11.51	1.0899	0.18939	0.0075207
0.39	11.94	1.1134	0.20171	0.011122
0.44	12.27	1.1502	0.21544	0.010079
0.49	12.66	1.1755	0.23214	0.016206
0.54	13.04	1.2092	0.24523	0.012649
0.59	13.44	1.2516	0.25813	0.013306
0.64	13.77	1.252	0.27415	0.02067
0.69	14.12	1.2755	0.28639	0.019748
0.74	14.41	1.3021	0.29911	0.017945
0.79	14.72	1.3185	0.31045	0.020781
0.83	15.02	1.3312	0.3193	0.020349
0.88	15.34	1.3463	0.33093	0.019889
0.93	15.61	1.3652	0.33451	0.013864
0.98	15.81	1.3625	0.34261	0.01785
1.03	16.05	1.3659	0.34471	0.014187
1.08	16.28	1.3706	0.34468	0.0064902
1.13	16.5	1.3791	0.3475	0.0062984
1.18	16.67	1.3734	0.34499	-0.001544
1.23	16.83	1.362	0.33874	-0.0075387
1.28	16.98	1.3648	0.32578	-0.025946
1.33	17.16	1.3442	0.30805	-0.033568
1.37	17.24	1.3547	0.2744	-0.060463
1.42	17.32	1.3381	0.23234	-0.087922
1.47	17.41	1.2941	0.19698	-0.10497
1.52	17.46	1.2328	0.16154	-0.10735
1.57	17.53	1.1556	0.15141	-0.10285
1.62	17.61	1.0974	0.15333	-0.092238
1.67	17.61	1.0193	0.16058	-0.054194
1.72	17.62	0.98215	0.16519	-0.037419
1.77	17.62	0.96914	0.16035	-0.037547
1.82	17.62	0.95671	0.15715	-0.040282
1.87	17.59	0.92398	0.15931	-0.028429
1.91	17.56	0.92411	0.15492	-0.031825
1.96	17.5	0.90202	0.15759	-0.023426
2.01	17.4	0.93074	0.1585	-0.03338
2.06	17.26	0.89779	0.15852	-0.019545
2.11	17.11	0.89476	0.1613	-0.017664
2.16	16.93	0.8781	0.16295	-0.009412
2.21	16.7	0.86458	0.15912	-0.009579
2.26	16.51	0.86026	0.16039	-0.0043672
2.31	16.27	0.86126	0.1598	-0.0044259
2.36	16.03	0.86898	0.16068	-0.0037596
2.41	15.76	0.87325	0.16268	-0.0044
2.45	15.51	0.87077	0.16294	0.00090255
2.5	15.2	0.8724	0.16721	0.0064208
2.55	14.9	0.87569	0.16629	0.0098173
2.6	14.59	0.8674	0.168	0.016152
2.65	14.24	0.87251	0.16509	0.012665
2.7	13.89	0.88989	0.16716	0.0094781
2.75	13.57	0.88314	0.17076	0.015687
2.8	13.16	0.88804	0.17144	0.023813
2.85	12.8	0.89379	0.1684	0.024948
2.9	12.44	0.89703	0.17194	0.032113
2.95	12.04	0.91252	0.17193	0.032242
2.99	11.65	0.91128	0.16957	0.035521
3.04	11.28	0.91306	0.16667	0.033629
3.09	10.86	0.92086	0.16325	0.031357
3.14	10.49	0.91907	0.15971	0.031551
3.19	10.09	0.89971	0.15191	0.027434
3.24	9.7	0.90417	0.14493	0.020652
3.29	9.294	0.86691	0.13471	0.022398
3.34	8.864	0.85353	0.12482	0.015874
3.39	8.467	0.81829	0.11602	0.01735
3.44	8.092	0.79177	0.10488	0.013694
3.49	7.664	0.75885	0.095715	0.014379
3.53	7.284	0.7113	0.087576	0.017091
3.58	6.909	0.68571	0.079488	0.012439
3.63	6.583	0.65486	0.07023	0.012204
3.68	6.187	0.62722	0.062109	0.010288
3.73	5.824	0.57524	0.05498	0.013709
3.78	5.415	0.53604	0.046315	0.012414
3.83	5.124	0.51072	0.040856	0.0079824
3.88	4.798	0.47524	0.035404	0.0088525
3.93	4.464	0.44542	0.029563	0.0072781
3.98	4.134	0.41756	0.026233	0.0090374
4.03	3.81	0.38039	0.020096	0.0077201
4.07	3.532	0.36014	0.017858	0.0052421
4.12	3.296	0.32273	0.012258	0.0044975
4.17	3.038	0.29729	0.010068	0.0032623
4.22	2.773	0.27392	0.0082288	0.0054144
4.27	2.584	0.24576	0.0052668	0.0071212
4.32	2.366	0.2228	0.0038774	0.005347
4.37	2.178	0.20467	0.0017296	0.0042482
4.42	1.989	0.19407	0.0012675	0.0026296
4.47	1.848	0.17477	-1.3996e-05	0.00048199
4.52	1.735	0.15124	-0.00026986	0.0040914
4.57	1.62	0.1401	-0.0009964	0.00090306
4.61	1.537	0.1355	-0.0010107	-0.00020994
4.66	1.472	0.12945	-0.002253	-0.0026064
4.71	1.405	0.11791	-0.0028257	0.0010391
4.76	1.349	0.11506	-0.0021299	0.0035
4.81	1.309	0.11601	-0.0024911	0.0020871
4.86	1.299	0.10721	-0.0030181	-0.0019048
4.91	1.299	0.091643	-0.0035964	0.0035394
4.96	1.307	0.10302	-0.0040369	0.0015039
5.01	1.315	0.10937	-0.0033867	-0.0016316
5.06	1.366	0.12188	-0.0030509	-0.0049166
5.11	1.39	0.10035	-0.0030661	0.00098589
5.15	1.48	0.12219	-0.0021113	-0.00027364
5.2	1.625	0.12329	-0.0026454	-0.0019107
5.25	1.775	0.14435	-0.0016735	0.0002779
5.3	1.908	0.15862	-0.0012108	-0.0013426
5.35	2.113	0.18934	0.0010254	-0.0055527
5.4	2.364	0.19687	0.00061402	0.00022369
5.45	2.608	0.22299	0.0016125	2.192e-05
5.5	2.846	0.24072	0.004173	0.00093449
5.55	3.111	0.27802	0.007285	-0.0028086
5.6	3.414	0.30517	0.0090684	-0.0029839
5.65	3.708	0.31822	0.011804	0.0034581
5.69	4.007	0.36143	0.015359	0.0021388
5.74	4.343	0.39502	0.018036	-0.0011137
5.79	4.688	0.43264	0.021852	-4.8767e-05
5.84	5.06	0.45779	0.025889	0.0011447
5.89	5.407	0.50647	0.034044	-0.00019814
5.94	5.837	0.54325	0.039194	-0.0019607
5.99	6.2	0.57715	0.045503	0.0017824
6.04	6.591	0.61619	0.05555	0.0014099
6.09	6.977	0.65588	0.062305	0.00064914
6.14	7.379	0.69836	0.072496	0.0034404
6.19	7.806	0.73183	0.079256	0.0022822
6.23	8.19	0.77805	0.088106	0.0025077
