% Time() Angle(deg) Cn Ct Cm
0	13.92	1.2763	0.26738	0.0092754
0.05	14.29	1.2896	0.27885	0.0076238
0.1	14.67	1.3214	0.29208	0.0079186
0.15	15.03	1.3442	0.30264	0.0044637
0.2	15.47	1.3726	0.31842	0.0061713
0.25	15.82	1.4071	0.33211	0.0045156
0.29	16.22	1.4199	0.34834	0.0063104
0.34	16.61	1.4563	0.36705	0.0059308
0.39	17.02	1.5113	0.38679	0.0031096
0.44	17.38	1.5475	0.40469	0.0013261
0.49	17.79	1.586	0.42263	0.00026959
0.54	18.16	1.6062	0.43802	-0.00077434
0.59	18.55	1.6198	0.45029	-0.0063497
0.64	18.98	1.6504	0.46143	-0.012982
0.69	19.33	1.6561	0.46526	-0.022906
0.74	19.7	1.6364	0.46953	-0.024908
0.79	20.04	1.6554	0.47426	-0.038447
0.83	20.42	1.6616	0.47355	-0.047425
0.88	20.75	1.6769	0.47014	-0.061751
0.93	21.1	1.7071	0.46508	-0.083747
0.98	21.4	1.7523	0.4498	-0.11259
1.03	21.71	1.8161	0.42472	-0.15424
1.08	21.99	1.8883	0.38895	-0.19699
1.13	22.27	1.9624	0.33688	-0.2515
1.18	22.5	1.9863	0.27331	-0.29402
1.23	22.71	1.9412	0.18542	-0.30765
1.28	22.95	1.8523	0.10302	-0.30027
1.33	23.15	1.7067	0.014899	-0.29198
1.37	23.34	1.6096	-0.062181	-0.28845
1.42	23.52	1.5046	-0.097359	-0.27601
1.47	23.7	1.4133	-0.097053	-0.25127
1.52	23.89	1.3472	-0.088633	-0.22803
1.57	24.07	1.301	-0.077832	-0.20958
1.62	24.24	1.3088	-0.05173	-0.18546
1.67	24.4	1.3359	-0.031507	-0.16531
1.72	24.54	1.4348	-0.026183	-0.18271
1.77	24.63	1.4733	-0.015559	-0.17547
1.82	24.69	1.4617	-0.018899	-0.17789
1.87	24.69	1.5045	-0.027763	-0.20606
1.91	24.67	1.5245	-0.038941	-0.23514
1.96	24.69	1.474	-0.050077	-0.24225
2.01	24.67	1.3417	-0.063305	-0.21475
2.06	24.66	1.2438	-0.082067	-0.20089
2.11	24.66	1.1817	-0.095546	-0.20009
2.16	24.67	1.1053	-0.089942	-0.17561
2.21	24.62	1.0744	-0.079858	-0.15555
2.26	24.62	1.0591	-0.068247	-0.14474
2.31	24.5	1.0614	-0.058835	-0.13652
2.36	24.44	1.0633	-0.05721	-0.13618
2.41	24.26	1.0349	-0.061932	-0.13333
2.45	24.07	0.97307	-0.066785	-0.12404
2.5	23.89	0.93289	-0.071948	-0.12118
2.55	23.68	0.86992	-0.072657	-0.11064
2.6	23.47	0.82793	-0.072516	-0.10042
2.65	23.24	0.77808	-0.073286	-0.089635
2.7	23	0.75391	-0.067163	-0.082668
2.75	22.74	0.73595	-0.067501	-0.074315
2.8	22.49	0.72172	-0.070643	-0.075606
2.85	22.24	0.71726	-0.068282	-0.073736
2.9	21.95	0.70602	-0.069547	-0.070952
2.95	21.65	0.69584	-0.071242	-0.069418
2.99	21.32	0.6679	-0.072492	-0.061121
3.04	20.98	0.64384	-0.07496	-0.057091
3.09	20.63	0.62342	-0.071001	-0.0521
3.14	20.25	0.61155	-0.069251	-0.047249
3.19	19.92	0.58821	-0.06904	-0.042032
3.24	19.51	0.56385	-0.068885	-0.039992
3.29	19.17	0.5506	-0.067191	-0.039965
3.34	18.83	0.52153	-0.065792	-0.034766
3.39	18.48	0.49906	-0.061157	-0.033369
3.44	18.14	0.4866	-0.057914	-0.029712
3.49	17.79	0.46288	-0.055484	-0.027764
3.53	17.43	0.4382	-0.051194	-0.019218
3.58	17.07	0.42392	-0.050717	-0.020889
3.63	16.66	0.41542	-0.044318	-0.014294
3.68	16.31	0.38705	-0.038024	-0.0070365
3.73	15.89	0.37565	-0.029445	0.002727
3.78	15.55	0.36929	-0.015953	0.01066
3.83	15.19	0.36293	-0.0037073	0.019139
3.88	14.79	0.3614	0.010801	0.024354
3.93	14.43	0.37662	0.025151	0.037392
3.98	14.09	0.3885	0.040829	0.047493
4.02	13.79	0.42884	0.049517	0.04416
4.07	13.44	0.49293	0.057966	0.030421
4.12	13.08	0.50005	0.065181	0.039407
4.17	12.77	0.53684	0.073519	0.034463
4.22	12.46	0.56616	0.081317	0.032924
4.27	12.17	0.60072	0.089168	0.036158
4.32	11.9	0.60966	0.094828	0.043447
4.37	11.61	0.6422	0.099306	0.042017
4.42	11.35	0.66335	0.10252	0.039812
4.47	11.08	0.68484	0.10683	0.038885
4.52	10.88	0.72444	0.11057	0.034841
4.56	10.66	0.74815	0.11499	0.035983
4.61	10.49	0.77684	0.11942	0.034354
4.66	10.31	0.80074	0.12061	0.029541
4.71	10.13	0.81973	0.12278	0.024638
4.76	9.988	0.81428	0.12321	0.030407
4.81	9.882	0.8228	0.12216	0.023297
4.86	9.737	0.81505	0.12308	0.023756
4.91	9.683	0.81191	0.1194	0.02036
4.96	9.59	0.81503	0.11774	0.017256
5.01	9.511	0.81384	0.11717	0.015954
5.06	9.483	0.82306	0.11828	0.01359
5.1	9.45	0.83304	0.11869	0.012816
5.15	9.432	0.84327	0.11948	0.0099072
5.2	9.45	0.86382	0.12461	0.0091808
5.25	9.422	0.86192	0.12557	0.013445
5.3	9.464	0.8842	0.12671	0.010233
5.35	9.458	0.8835	0.12813	0.0084645
5.4	9.508	0.89671	0.1292	0.0085102
5.45	9.582	0.89627	0.12744	0.0064056
5.5	9.63	0.89934	0.12939	0.0087862
5.55	9.757	0.90964	0.13079	0.0033149
5.6	9.93	0.91219	0.135	0.0060704
5.64	10.1	0.91608	0.13792	0.0065486
5.69	10.3	0.94972	0.14491	0.0033152
5.74	10.5	0.96697	0.15068	0.0024598
5.79	10.75	0.99416	0.15727	0.0033402
5.84	10.99	1.0086	0.16453	0.0062196
5.89	11.3	1.0716	0.17497	-0.0028253
5.94	11.54	1.0827	0.18598	0.0053338
5.99	11.85	1.1222	0.1966	0.0033288
6.04	12.12	1.1576	0.20527	0.0037373
6.09	12.44	1.1757	0.21813	0.0063814
6.14	12.78	1.2167	0.22808	0.0034431
6.18	13.08	1.2293	0.23925	0.0073225
6.23	13.47	1.2567	0.25093	0.0034805
