% Time() Angle(deg) Cn Ct Cm
0	1.895	0.12549	-0.0018346	-0.0024563
0.05	2.349	0.17877	-0.0011625	-0.0071078
0.1	2.753	0.21917	0.003128	-0.0050131
0.15	3.155	0.24934	0.0058301	0.0016314
0.2	3.531	0.30789	0.0082584	-0.0030724
0.25	3.95	0.34204	0.013339	-3.6562e-05
0.29	4.327	0.38544	0.018734	0.001299
0.34	4.733	0.40856	0.021992	0.0068237
0.39	5.1	0.44099	0.027607	0.0060238
0.44	5.499	0.48898	0.031116	0.0031297
0.49	5.874	0.52547	0.039764	0.0021874
0.54	6.238	0.57812	0.047916	0.00199
0.59	6.629	0.61056	0.055536	0.0016699
0.64	6.991	0.63315	0.060669	0.0078167
0.69	7.337	0.67606	0.069611	0.0052044
0.74	7.639	0.69997	0.077407	0.0078229
0.79	7.983	0.72677	0.083507	0.0072587
0.83	8.324	0.77258	0.091471	0.0041202
0.88	8.612	0.79719	0.099023	0.0073237
0.93	8.878	0.84282	0.11095	0.0029189
0.98	9.162	0.85569	0.11718	0.0046051
1.03	9.376	0.87754	0.12323	0.0098987
1.08	9.654	0.9103	0.13116	0.0054114
1.13	9.876	0.9171	0.14012	0.012084
1.18	10.09	0.93622	0.14512	0.012504
1.23	10.25	0.95829	0.14982	0.0079399
1.28	10.43	0.96019	0.15702	0.016266
1.33	10.6	0.98982	0.16272	0.0081718
1.37	10.73	0.99178	0.16837	0.012912
1.42	10.85	1.0017	0.17177	0.012929
1.47	10.99	1.0093	0.17588	0.010751
1.52	11.05	1.0138	0.17883	0.017943
1.57	11.15	1.0184	0.1784	0.014971
1.62	11.19	1.0207	0.18013	0.017355
1.67	11.2	1.025	0.18166	0.019346
1.72	11.23	1.0371	0.18418	0.012848
1.77	11.27	1.0247	0.18538	0.017327
1.82	11.28	1.0338	0.18586	0.014678
1.87	11.25	1.0356	0.18692	0.018714
1.91	11.2	1.0351	0.18641	0.016284
1.96	11.19	1.0237	0.18447	0.017757
2.01	11.1	1.0247	0.18499	0.01669
2.06	11	1.0181	0.17845	0.016797
2.11	10.87	1.0113	0.17577	0.016403
2.16	10.75	0.98155	0.17065	0.019252
2.21	10.57	0.97731	0.16562	0.018402
2.26	10.4	0.96302	0.16439	0.019421
2.31	10.16	0.94282	0.15775	0.019737
2.36	9.951	0.9321	0.15343	0.017259
2.41	9.684	0.92224	0.14583	0.017465
2.45	9.429	0.90338	0.14012	0.014823
2.5	9.154	0.87151	0.12962	0.015876
2.55	8.83	0.84972	0.12335	0.015774
2.6	8.542	0.83183	0.118	0.01326
2.65	8.233	0.8019	0.10988	0.012725
2.7	7.922	0.75982	0.097267	0.015251
2.75	7.567	0.73815	0.090026	0.010502
2.8	7.227	0.68839	0.081811	0.013459
2.85	6.883	0.6736	0.073602	0.0089416
2.9	6.522	0.62082	0.065378	0.013864
2.95	6.127	0.60419	0.05833	0.0075045
2.99	5.757	0.55771	0.050438	0.011173
3.04	5.344	0.52146	0.044524	0.010458
3.09	4.97	0.47907	0.036495	0.011959
3.14	4.548	0.44971	0.032525	0.01121
3.19	4.142	0.41589	0.025819	0.0096553
3.24	3.812	0.36263	0.020193	0.01224
3.29	3.397	0.33544	0.014791	0.008012
3.34	2.958	0.29613	0.011813	0.0075432
3.39	2.593	0.25402	0.0074034	0.0074146
3.44	2.087	0.21311	0.0033701	0.0060425
3.49	1.755	0.16716	0.0016539	0.0087734
3.53	1.371	0.1205	-0.0010787	0.0091777
3.58	0.9714	0.089855	-0.0031939	0.0041211
3.63	0.5902	0.04365	-0.0039339	0.0038924
3.68	0.1974	0.011134	-0.0049319	0.0068497
3.73	-0.1285	-0.021646	-0.0049041	0.0020591
3.78	-0.5147	-0.064984	-0.0055292	0.004013
3.83	-0.8733	-0.095405	-0.0041326	0.005973
3.88	-1.212	-0.12885	-0.0021425	2.2108e-05
3.93	-1.541	-0.16439	-0.00083933	0.0018773
3.98	-1.846	-0.18626	0.00088459	-0.0012486
4.03	-2.177	-0.22957	0.0033719	0.00028774
4.07	-2.447	-0.25093	0.005845	-0.0026054
4.12	-2.771	-0.28033	0.0093114	-0.0047051
4.17	-3.014	-0.31542	0.010498	-0.00082276
4.22	-3.235	-0.33426	0.013959	-0.0018385
4.27	-3.48	-0.36298	0.016795	-0.002283
4.32	-3.681	-0.3744	0.020578	-0.005235
4.37	-3.869	-0.40252	0.023053	-0.0047651
4.42	-4.056	-0.41038	0.025342	-0.0061751
4.47	-4.187	-0.42222	0.027045	-0.0074924
4.52	-4.353	-0.44458	0.031637	-0.0057538
4.57	-4.484	-0.45832	0.033192	-0.0054432
4.61	-4.601	-0.47263	0.035646	-0.0049632
4.66	-4.718	-0.4867	0.036231	-0.0048858
4.71	-4.724	-0.48425	0.036412	-0.003185
4.76	-4.788	-0.48799	0.036981	-0.0055946
4.81	-4.807	-0.49466	0.039814	-0.0061986
4.86	-4.848	-0.50391	0.039995	-0.007443
4.91	-4.857	-0.50991	0.041991	-0.0033159
4.96	-4.875	-0.51198	0.041956	-0.0057486
5.01	-4.887	-0.50632	0.042833	-0.0051361
5.06	-4.864	-0.51002	0.040888	-0.0059543
5.11	-4.796	-0.51223	0.042016	-0.007077
5.15	-4.805	-0.50556	0.039861	-0.0076102
5.2	-4.685	-0.50528	0.040203	-0.0044013
5.25	-4.55	-0.4766	0.039362	-0.0083614
5.3	-4.402	-0.47435	0.035277	-0.0067812
5.35	-4.231	-0.46904	0.034938	-0.007155
5.4	-4.075	-0.44479	0.034383	-0.0091498
5.45	-3.849	-0.42211	0.029852	-0.010632
5.5	-3.611	-0.4066	0.02569	-0.0072289
5.55	-3.374	-0.38206	0.022336	-0.0096689
5.6	-3.099	-0.36364	0.018546	-0.0047427
5.65	-2.789	-0.32535	0.01545	-0.0094681
5.69	-2.494	-0.29818	0.012575	-0.010202
5.74	-2.222	-0.27481	0.010709	-0.007796
5.79	-1.851	-0.23422	0.0073158	-0.006093
5.84	-1.581	-0.20464	0.0031618	-0.0051869
5.89	-1.176	-0.18121	0.0010558	-0.0043052
5.94	-0.8472	-0.14197	0.00056142	-0.0033633
5.99	-0.4936	-0.10767	-0.0015868	-0.0050394
6.04	-0.1057	-0.061243	-0.0036751	-0.0038574
6.09	0.2463	-0.040466	-0.0045941	-0.000285
6.14	0.6814	0.016677	-0.0049192	-0.0046366
6.19	1.046	0.043701	-0.0037783	-0.0035398
6.23	1.447	0.087737	-0.0042193	-0.0032229
