% Time() Angle(deg) Cn Ct Cm
0	5.027	0.46311	0.020792	-0.011064
0.05	5.417	0.48732	0.025014	-0.0058978
0.1	5.809	0.51691	0.030724	-0.0058795
0.15	6.227	0.53848	0.036332	-0.0028926
0.2	6.591	0.59088	0.043863	-0.0078195
0.25	6.983	0.61049	0.049214	-0.00023207
0.29	7.37	0.65719	0.056789	-0.0034829
0.34	7.752	0.68983	0.062523	-0.00827
0.39	8.167	0.71904	0.069623	-0.0039282
0.44	8.561	0.7545	0.078909	-0.0044819
0.49	8.948	0.81346	0.088557	-0.0072154
0.54	9.397	0.84692	0.097823	-0.0092727
0.59	9.816	0.87949	0.10812	-0.010495
0.64	10.21	0.90495	0.11986	-0.0038682
0.69	10.59	0.95081	0.13214	-0.0030963
0.74	10.97	0.98748	0.14507	-0.0053575
0.79	11.34	1.0082	0.15549	-0.00078718
0.83	11.71	1.0512	0.16663	-0.00011095
0.88	12.05	1.0739	0.17682	0.001753
0.93	12.41	1.0771	0.18666	0.0043501
0.98	12.73	1.1092	0.19984	0.004928
1.03	13.05	1.1574	0.21288	0.0014906
1.08	13.4	1.1805	0.22538	0.0025715
1.13	13.68	1.2161	0.23482	0.0030338
1.18	13.97	1.2053	0.24714	0.0058743
1.23	14.23	1.2386	0.25907	0.0082686
1.28	14.51	1.2712	0.27187	0.0087839
1.33	14.73	1.2673	0.27928	0.011393
1.37	14.93	1.2893	0.28958	0.011122
1.42	15.15	1.2854	0.29968	0.017291
1.47	15.35	1.3086	0.31169	0.01555
1.52	15.46	1.3196	0.31475	0.014812
1.57	15.62	1.3226	0.32447	0.018591
1.62	15.75	1.348	0.33007	0.014015
1.67	15.81	1.3364	0.32975	0.019728
1.72	15.94	1.3442	0.33496	0.016523
1.77	16.02	1.3489	0.33462	0.013849
1.82	16.05	1.3314	0.33405	0.016649
1.87	16.08	1.3098	0.33546	0.016526
1.91	16.1	1.311	0.33359	0.018291
1.96	16.11	1.2921	0.3275	0.020774
2.01	16.12	1.3006	0.32731	0.014011
2.06	16.07	1.3153	0.32198	0.0075603
2.11	16.08	1.2983	0.31905	0.0075121
2.16	16.05	1.2932	0.32002	0.0090726
2.21	16.02	1.2836	0.31895	0.01049
2.26	15.94	1.2838	0.31298	0.0040592
2.31	15.81	1.2469	0.30826	0.012332
2.36	15.72	1.2241	0.29889	0.011168
2.41	15.58	1.203	0.29073	0.012512
2.45	15.41	1.2091	0.28312	0.0017403
2.5	15.22	1.1757	0.27437	0.0059146
2.55	14.96	1.1136	0.25929	0.015009
2.6	14.74	1.0888	0.2505	0.016285
2.65	14.48	1.059	0.23736	0.014408
2.7	14.23	1.0411	0.22803	0.010639
2.75	13.95	0.99558	0.21622	0.018262
2.8	13.69	0.95255	0.20464	0.025105
2.85	13.38	0.92969	0.19647	0.028194
2.9	13.06	0.89689	0.18465	0.031193
2.95	12.75	0.89232	0.17657	0.02512
2.99	12.39	0.85578	0.16848	0.029255
3.04	12.04	0.8235	0.15788	0.03308
3.09	11.7	0.77715	0.14831	0.042571
3.14	11.34	0.76029	0.14044	0.036572
3.19	10.95	0.73007	0.13507	0.043323
3.24	10.58	0.72169	0.12888	0.041165
3.29	10.21	0.69078	0.12191	0.045722
3.34	9.807	0.66127	0.11284	0.050435
3.39	9.451	0.64227	0.10919	0.049403
3.44	9.06	0.60347	0.10038	0.056479
3.49	8.69	0.59564	0.093585	0.054051
3.53	8.293	0.57802	0.087457	0.051036
3.58	7.906	0.55911	0.078503	0.047057
3.63	7.496	0.5422	0.076868	0.04904
3.68	7.127	0.54736	0.068712	0.039094
3.73	6.729	0.50157	0.062096	0.041962
3.78	6.303	0.47794	0.05765	0.043348
3.83	5.908	0.4775	0.050113	0.037054
3.88	5.499	0.46031	0.044725	0.032206
3.93	5.152	0.41488	0.038793	0.032323
3.98	4.779	0.41528	0.034321	0.027716
4.03	4.428	0.40751	0.032774	0.020153
4.07	4.1	0.37631	0.028467	0.01866
4.12	3.742	0.34066	0.02437	0.023203
4.17	3.41	0.32549	0.019498	0.01988
4.22	3.116	0.31577	0.016239	0.0175
4.27	2.8	0.27529	0.014118	0.019073
4.32	2.517	0.25853	0.010345	0.014993
4.37	2.196	0.25196	0.0075347	0.01389
4.42	1.965	0.20311	0.0049116	0.016684
4.47	1.713	0.18641	0.005767	0.010096
4.52	1.467	0.18793	0.0030714	0.0087248
4.57	1.271	0.1512	0.0013572	0.015137
4.61	1.048	0.14795	0.00082219	0.0081884
4.66	0.8672	0.1272	-0.0017622	0.011507
4.71	0.7466	0.10449	-0.0032944	0.005622
4.76	0.613	0.11406	-0.0018674	0.0034327
4.81	0.494	0.097946	-0.0027883	0.0023633
4.86	0.3914	0.076316	-0.0044488	0.0058936
4.91	0.3001	0.08117	-0.0050354	0.00014356
4.96	0.2594	0.078412	-0.0037267	-0.00017522
5.01	0.1974	0.066227	-0.0034645	-0.00013981
5.06	0.1714	0.050339	-0.004656	0.0043453
5.1	0.1616	0.064833	-0.0047917	0.0016507
5.15	0.1551	0.0521	-0.0043158	-0.0011783
5.2	0.1502	0.029616	-0.0041947	0.0046861
5.25	0.1877	0.030229	-0.0060965	0.0016453
5.3	0.1828	0.048323	-0.0041914	-0.0045808
5.35	0.1828	0.060097	-0.0029038	-0.0048395
5.4	0.2626	0.067216	-0.0030639	-0.0076583
5.45	0.3294	0.058758	-0.0014152	-0.002689
5.5	0.4305	0.061118	-0.0040169	-0.0012238
5.55	0.5934	0.046748	-0.0067964	0.0026588
5.6	0.7449	0.057282	-0.0050746	0.0014799
5.64	0.9633	0.11293	-0.0027988	-0.0048289
5.69	1.198	0.17435	-0.0021389	-0.015383
5.74	1.442	0.17201	0.0016581	-0.0098149
5.79	1.735	0.15596	-0.0045788	-0.0012559
5.84	1.983	0.18178	-0.0037117	-0.0057816
5.89	2.266	0.24269	-0.00049464	-0.011939
5.94	2.595	0.26219	0.0036015	-0.0082532
5.99	2.882	0.29082	0.004255	-0.013362
6.04	3.204	0.28088	0.0028653	-0.0056725
6.09	3.524	0.31425	0.0058137	-0.0030535
6.14	3.859	0.3571	0.0084086	-0.0082167
6.18	4.2	0.37421	0.012876	-0.0075782
6.23	4.509	0.40368	0.016358	-0.0043255
