% Time() Angle(deg) Cn Ct Cm
0	6.3912	0.54128	0.03941	-0.0034473
0.05	6.7231	0.56499	0.045846	0.00063535
0.1	7.0953	0.60832	0.052142	-0.0020582
0.15	7.4339	0.63566	0.060416	0.002115
0.2	7.8275	0.6674	0.068144	0.00072073
0.25	8.1486	0.69896	0.076007	0.003141
0.29	8.4811	0.72668	0.084629	0.0039719
0.34	8.8412	0.75609	0.093419	0.0092079
0.39	9.0866	0.78396	0.10272	0.0074186
0.44	9.3629	0.80491	0.10845	0.0063946
0.49	9.6068	0.82364	0.11717	0.010555
0.54	9.867	0.86129	0.12295	0.0064078
0.59	10.122	0.87906	0.13179	0.0096178
0.64	10.305	0.89355	0.13826	0.012254
0.69	10.541	0.91811	0.14497	0.0088243
0.74	10.733	0.92688	0.15352	0.012174
0.79	10.895	0.94637	0.15843	0.010743
0.83	11.018	0.96643	0.1664	0.01212
0.88	11.16	0.9718	0.17078	0.014683
0.93	11.309	0.98103	0.17505	0.016508
0.98	11.411	0.98863	0.18107	0.017136
1.03	11.475	1.0022	0.18644	0.017093
1.08	11.542	1.0073	0.19057	0.019904
1.13	11.553	1.0087	0.19298	0.020627
1.18	11.592	1.0185	0.19713	0.021519
1.23	11.584	1.0139	0.19919	0.022158
1.28	11.61	1.0236	0.20039	0.021101
1.33	11.587	1.0281	0.20108	0.021986
1.37	11.585	1.0258	0.20162	0.023487
1.42	11.588	1.0238	0.2042	0.025289
1.47	11.563	1.0251	0.20055	0.023664
1.52	11.522	1.0135	0.20048	0.026219
1.57	11.44	0.99994	0.1988	0.027272
1.62	11.356	0.98219	0.19415	0.027992
1.67	11.184	0.96634	0.19019	0.030893
1.72	11.034	0.94624	0.185	0.033985
1.77	10.866	0.93747	0.18234	0.031345
1.82	10.665	0.93185	0.17545	0.027736
1.87	10.459	0.91428	0.1712	0.02841
1.91	10.213	0.90363	0.16555	0.029746
1.96	10.001	0.88461	0.15959	0.027261
2.01	9.7522	0.86636	0.15157	0.028015
2.06	9.4808	0.84668	0.14569	0.029141
2.11	9.1997	0.82419	0.13895	0.029958
2.16	8.9187	0.79449	0.13086	0.029947
2.21	8.5618	0.77699	0.12517	0.029944
2.26	8.2357	0.73241	0.11417	0.030309
2.31	7.913	0.71856	0.10682	0.026132
2.36	7.5371	0.69326	0.1007	0.02772
2.41	7.2033	0.67441	0.091625	0.023774
2.45	6.8165	0.63569	0.086247	0.028769
2.5	6.4782	0.6121	0.076972	0.025322
2.55	6.1079	0.59334	0.070767	0.021911
2.6	5.7683	0.55342	0.063503	0.025015
2.65	5.3855	0.52861	0.057073	0.021894
2.7	5.003	0.49498	0.04906	0.023213
2.75	4.6208	0.46578	0.0427	0.020063
2.8	4.25	0.42579	0.036096	0.021302
2.85	3.9005	0.38821	0.030855	0.022249
2.9	3.5031	0.36334	0.02405	0.016822
2.95	3.1061	0.33269	0.019062	0.016218
2.99	2.7142	0.29107	0.014407	0.017456
3.04	2.3659	0.25467	0.010703	0.01674
3.09	2.0211	0.21614	0.0056678	0.017605
3.14	1.624	0.19446	0.0032	0.011019
3.19	1.2178	0.15148	0.0016639	0.015544
3.24	0.87253	0.12708	-0.0016573	0.011664
3.29	0.59276	0.0865	-0.0032296	0.013188
3.34	0.2323	0.060117	-0.0046287	0.011525
3.39	-0.11981	0.020173	-0.0066302	0.012966
3.44	-0.41291	-0.0087957	-0.0050322	0.01091
3.49	-0.67566	-0.028533	-0.0065976	0.0092114
3.53	-0.98083	-0.06813	-0.0060321	0.011393
3.58	-1.2683	-0.09422	-0.0060228	0.0091938
3.63	-1.5286	-0.12896	-0.0051773	0.011191
3.68	-1.8029	-0.13452	-0.003707	0.0047467
3.73	-2.0312	-0.17376	-0.0023976	0.0069534
3.78	-2.2703	-0.18664	-0.00029826	0.0031722
3.83	-2.4747	-0.20988	0.00048532	0.0044395
3.88	-2.6851	-0.23712	0.0022689	0.0033425
3.93	-2.8467	-0.24818	0.0047602	0.0013237
3.98	-2.9863	-0.26481	0.0057548	0.0019555
4.02	-3.1273	-0.27032	0.0080282	-0.0011511
4.07	-3.2338	-0.2883	0.009611	-0.00059992
4.12	-3.3137	-0.30874	0.010063	-0.0010143
4.17	-3.4107	-0.3079	0.011412	-0.0038399
4.22	-3.4748	-0.32146	0.012083	-0.00041789
4.27	-3.5108	-0.32224	0.013544	-0.0030677
4.32	-3.5499	-0.33543	0.014422	-0.0013913
4.37	-3.5296	-0.33448	0.014511	-0.0024518
4.42	-3.564	-0.33586	0.01694	-0.0037798
4.47	-3.5624	-0.3383	0.017498	-0.0041324
4.52	-3.5515	-0.34431	0.017623	-0.0037254
4.56	-3.5624	-0.3545	0.017371	-0.0010768
4.61	-3.5327	-0.34763	0.017004	-0.0032294
4.66	-3.5468	-0.33615	0.01781	-0.0061647
4.71	-3.4655	-0.3407	0.017969	-0.0040735
4.76	-3.3997	-0.32998	0.016648	-0.0060147
4.81	-3.2667	-0.31412	0.015958	-0.0094219
4.86	-3.1461	-0.31126	0.014714	-0.0052068
4.91	-2.9424	-0.28568	0.013182	-0.011745
4.96	-2.7777	-0.27033	0.011285	-0.008834
5.01	-2.5485	-0.25999	0.0088444	-0.0062945
5.06	-2.2798	-0.23943	0.0077837	-0.0070761
5.1	-2.0155	-0.21137	0.005079	-0.0095835
5.15	-1.7367	-0.19149	0.0055391	-0.0085653
5.2	-1.4308	-0.1632	0.0015558	-0.0087381
5.25	-1.1262	-0.15339	0.00050138	-0.0040991
5.3	-0.84172	-0.13405	-0.00034353	-0.0044331
5.35	-0.5459	-0.099964	-0.0014709	-0.0063535
5.4	-0.27036	-0.078172	-0.002896	-0.0080471
5.45	0.057776	-0.055623	-0.0048229	-0.0051316
5.5	0.36246	-0.02328	-0.0062318	-0.0068917
5.55	0.68811	0.0024689	-0.0039455	-0.0050662
5.6	1.0141	0.039541	-0.0060091	-0.00739
5.64	1.3579	0.073282	-0.0054924	-0.0089035
5.69	1.7308	0.098873	-0.0047457	-0.0054675
5.74	2.1025	0.13979	-0.0033821	-0.0077307
5.79	2.5033	0.17369	-0.0028386	-0.0054199
5.84	2.9045	0.2135	2.6201e-05	-0.0037337
5.89	3.3173	0.24347	0.002587	-0.0039549
5.94	3.7338	0.28044	0.0032703	-0.0036033
5.99	4.1105	0.30725	0.0080438	-0.0025231
6.04	4.5132	0.35071	0.01158	-0.0021598
6.09	4.8488	0.39305	0.015742	-0.0022134
6.14	5.2312	0.42548	0.022401	-0.0020303
6.18	5.6123	0.45046	0.026161	0.00060817
6.23	5.9437	0.49654	0.032319	-0.0020313
