% Time() Angle(deg) Cn Ct Cm
0	6.6747	0.58713	0.054125	0.0067927
0.05	7.0437	0.62788	0.063434	0.0052174
0.1	7.3888	0.65225	0.071029	0.010449
0.15	7.7888	0.69946	0.080306	0.0064799
0.2	8.1728	0.73587	0.090203	0.0069254
0.25	8.5102	0.76175	0.097962	0.0063295
0.29	8.8783	0.79806	0.10743	0.0095438
0.34	9.1933	0.82725	0.12001	0.010141
0.39	9.5309	0.84815	0.12592	0.010065
0.44	9.8524	0.87555	0.13734	0.012695
0.49	10.155	0.89543	0.14654	0.015187
0.54	10.475	0.93622	0.1563	0.011896
0.59	10.767	0.95793	0.16551	0.014582
0.64	11.026	0.98146	0.17131	0.01242
0.69	11.291	0.99853	0.1818	0.016515
0.74	11.521	1.026	0.1891	0.014144
0.79	11.728	1.0351	0.19755	0.016567
0.83	11.988	1.0447	0.20461	0.01845
0.88	12.174	1.0507	0.2109	0.020323
0.93	12.348	1.0672	0.21363	0.020387
0.98	12.507	1.0821	0.21982	0.021774
1.03	12.647	1.0901	0.22147	0.020159
1.08	12.796	1.0922	0.2296	0.023861
1.13	12.893	1.1058	0.23339	0.020183
1.18	13.011	1.1123	0.23601	0.020175
1.23	13.102	1.108	0.23967	0.026234
1.28	13.161	1.1095	0.24067	0.023045
1.33	13.165	1.1089	0.24241	0.025972
1.37	13.197	1.1133	0.24429	0.025786
1.42	13.223	1.1104	0.24278	0.024902
1.47	13.236	1.1154	0.24367	0.024291
1.52	13.2	1.1156	0.24258	0.02488
1.57	13.229	1.1012	0.24102	0.027502
1.62	13.171	1.0964	0.24041	0.026738
1.67	13.056	1.0883	0.23502	0.025849
1.72	12.961	1.0872	0.23261	0.025938
1.77	12.858	1.0842	0.23105	0.025363
1.82	12.694	1.0627	0.22717	0.028394
1.87	12.523	1.0508	0.21912	0.025902
1.91	12.331	1.0408	0.21337	0.023779
1.96	12.132	1.0301	0.21144	0.025724
2.01	11.899	1.0173	0.2037	0.026436
2.06	11.624	0.98421	0.19606	0.031284
2.11	11.433	0.97501	0.18882	0.028645
2.16	11.141	0.96051	0.18355	0.02691
2.21	10.859	0.94529	0.17441	0.026787
2.26	10.557	0.91767	0.16796	0.02514
2.31	10.237	0.91128	0.15787	0.021312
2.36	9.951	0.88517	0.14843	0.02232
2.41	9.5842	0.86201	0.14026	0.019483
2.45	9.2433	0.83259	0.1308	0.019375
2.5	8.8977	0.79715	0.11889	0.01891
2.55	8.5118	0.77432	0.10947	0.017803
2.6	8.155	0.741	0.104	0.021505
2.65	7.7791	0.71362	0.093096	0.018769
2.7	7.3936	0.68583	0.084034	0.014753
2.75	7.0244	0.64801	0.074228	0.013548
2.8	6.6183	0.61416	0.068507	0.013674
2.85	6.2592	0.588	0.060003	0.0095935
2.9	5.8632	0.55449	0.051882	0.010101
2.95	5.4691	0.52252	0.045751	0.010899
2.99	5.0512	0.47398	0.039016	0.012367
3.04	4.6738	0.44336	0.031368	0.011137
3.09	4.2789	0.4045	0.024936	0.0089463
3.14	3.8844	0.36545	0.017607	0.0088481
3.19	3.5127	0.33035	0.014287	0.0083503
3.24	3.1381	0.29434	0.010035	0.0098464
3.29	2.759	0.26231	0.0058233	0.0076465
3.34	2.3962	0.21625	0.0028103	0.0060488
3.39	2.0913	0.19775	0.0013066	0.0039266
3.44	1.6782	0.15458	-0.0018508	0.005122
3.49	1.3436	0.11916	-0.0037965	0.0051873
3.53	1.0539	0.083692	-0.0067436	0.0066312
3.58	0.69288	0.06627	-0.0067558	0.0021149
3.63	0.44027	0.031906	-0.0060588	0.0042155
3.68	0.075224	-0.0068283	-0.0067068	0.0023445
3.73	-0.18321	-0.023022	-0.0049759	0.00079206
3.78	-0.4335	-0.063339	-0.0043162	0.0062666
3.83	-0.69148	-0.08315	-0.0055711	0.0027319
3.88	-0.9508	-0.10126	-0.0053382	-0.0011986
3.93	-1.1546	-0.12419	-0.0029549	-0.00021336
3.98	-1.3835	-0.15228	-0.0018854	-0.001099
4.03	-1.5807	-0.18215	-0.0016523	0.0016298
4.07	-1.7525	-0.18943	-0.0012615	-0.0015109
4.12	-1.9242	-0.21191	0.003552	0.00056358
4.17	-2.0706	-0.21696	0.0026325	-0.0029156
4.22	-2.1838	-0.23823	0.002736	-3.132e-05
4.27	-2.2656	-0.2474	0.0054484	-0.0019252
4.32	-2.3851	-0.25172	0.0042998	-0.0022955
4.37	-2.4794	-0.26472	0.0082571	-0.0028391
4.42	-2.4809	-0.25924	0.007281	-0.005906
4.47	-2.5391	-0.27436	0.0051897	-0.0016837
4.52	-2.5438	-0.28434	0.0065838	-0.0010141
4.57	-2.6034	-0.27768	0.0082	-0.002984
4.61	-2.5799	-0.27832	0.0081261	-0.0031217
4.66	-2.5925	-0.28541	0.0085359	-0.0016769
4.71	-2.6019	-0.28	0.0091845	-0.0026245
4.76	-2.594	-0.29083	0.0087369	-0.00046964
4.81	-2.5359	-0.27536	0.0077767	-0.0041632
4.86	-2.4134	-0.26747	0.0063245	-0.0054336
4.91	-2.2452	-0.25642	0.0059641	-0.0028414
4.96	-2.1067	-0.25838	0.0058087	7.6903e-05
5.01	-1.9745	-0.2326	0.0050802	-0.0031638
5.06	-1.8249	-0.21504	0.0039684	-0.0046235
5.11	-1.6169	-0.19235	0.0018195	-0.0052057
5.15	-1.3646	-0.17681	0.00024234	-0.0050991
5.2	-1.123	-0.15644	-0.0018136	-0.0048168
5.25	-0.86702	-0.13319	-0.0028825	-0.0046238
5.3	-0.67724	-0.11316	-0.0046609	-0.004839
5.35	-0.38916	-0.083398	-0.0049991	-0.0049362
5.4	-0.080179	-0.058844	-0.0060163	-0.00066072
5.45	0.2688	-0.018171	-0.005034	-0.0024976
5.5	0.60865	0.018318	-0.004848	-0.0034121
5.55	0.9107	0.046361	-0.0067628	-0.0020157
5.6	1.2433	0.0793	-0.0069809	-0.0039391
5.65	1.5523	0.10845	-0.0053942	-0.0022673
5.69	2.0035	0.14683	-0.0030616	-0.0024869
5.74	2.3611	0.16724	-0.0021461	0.0019762
5.79	2.6727	0.20717	0.0010105	0.0013131
5.84	3.0741	0.23806	0.0031149	0.0031368
5.89	3.455	0.28662	0.0065175	-0.00032947
5.94	3.8812	0.31606	0.010684	0.0043409
5.99	4.2549	0.35778	0.015223	0.0021018
6.04	4.6433	0.39571	0.01923	0.00076952
6.09	5.0432	0.43105	0.024559	0.0013748
6.14	5.4434	0.46717	0.029898	0.0027826
6.19	5.8262	0.50724	0.038139	0.002752
6.23	6.2286	0.54357	0.044269	0.0041553
