% Time() Angle(deg) Cn Ct Cm
0	7.2646	0.61602	0.05679	0.0038388
0.05	7.6613	0.65614	0.064996	0.0040328
0.1	8.0114	0.69114	0.073183	0.0008623
0.15	8.3665	0.73189	0.081545	0.0010417
0.2	8.7475	0.75288	0.090869	0.0040099
0.25	9.1012	0.78248	0.098278	0.0073976
0.29	9.4469	0.8186	0.10722	0.0053063
0.34	9.7636	0.84838	0.11765	0.0051644
0.39	10.098	0.87138	0.12593	0.0072812
0.44	10.36	0.90242	0.13454	0.0055718
0.49	10.665	0.92376	0.14315	0.007003
0.54	10.914	0.94453	0.15322	0.011143
0.59	11.175	0.97711	0.16289	0.0087879
0.64	11.419	0.98442	0.17133	0.012212
0.69	11.637	1.0197	0.18051	0.0082866
0.74	11.849	1.0308	0.18932	0.014282
0.79	12.065	1.0474	0.19932	0.017555
0.83	12.253	1.0634	0.20774	0.016961
0.88	12.411	1.0804	0.21377	0.017864
0.93	12.557	1.0942	0.22086	0.016202
0.98	12.681	1.1021	0.22474	0.017725
1.03	12.756	1.1053	0.22868	0.021695
1.08	12.861	1.1163	0.234	0.021354
1.13	12.93	1.1186	0.23716	0.021941
1.18	12.959	1.1079	0.24215	0.029085
1.23	13.014	1.1241	0.24244	0.024682
1.28	13.008	1.1193	0.24548	0.024793
1.33	13.026	1.1278	0.2484	0.024542
1.37	13.003	1.1244	0.24829	0.025385
1.42	13.006	1.1224	0.25055	0.025561
1.47	13.011	1.1313	0.25172	0.02625
1.52	12.984	1.1304	0.25166	0.026363
1.57	12.972	1.1267	0.25191	0.027001
1.62	12.867	1.1053	0.25173	0.033675
1.67	12.767	1.0958	0.24743	0.032688
1.72	12.644	1.069	0.24243	0.037277
1.77	12.458	1.0497	0.23526	0.034197
1.82	12.313	1.0492	0.2305	0.03337
1.87	12.122	1.0385	0.22548	0.033166
1.91	11.907	1.0239	0.21899	0.035197
1.96	11.656	1.0056	0.21278	0.033432
2.01	11.456	0.97657	0.20482	0.035077
2.06	11.199	0.95772	0.19655	0.036996
2.11	10.942	0.94719	0.18897	0.03469
2.16	10.678	0.91893	0.18091	0.037478
2.21	10.371	0.89538	0.17218	0.036817
2.26	10.056	0.87853	0.16257	0.034869
2.31	9.7361	0.84844	0.15524	0.03576
2.36	9.3726	0.82154	0.1461	0.036009
2.41	9.0511	0.80254	0.13801	0.03554
2.45	8.7637	0.76579	0.12694	0.034839
2.5	8.3746	0.75311	0.11772	0.030438
2.55	8.0001	0.71969	0.11112	0.032856
2.6	7.642	0.69528	0.10222	0.029292
2.65	7.2985	0.66724	0.094099	0.031236
2.7	6.918	0.63659	0.086024	0.028921
2.75	6.5555	0.6149	0.078726	0.027177
2.8	6.1771	0.58217	0.069122	0.025566
2.85	5.8069	0.55128	0.061203	0.023884
2.9	5.4289	0.52241	0.054152	0.022871
2.95	5.0175	0.48911	0.046547	0.022455
2.99	4.6288	0.45639	0.040213	0.021961
3.04	4.2356	0.42241	0.034613	0.021242
3.09	3.8956	0.40027	0.029155	0.016309
3.14	3.5079	0.35863	0.023135	0.015944
3.19	3.1333	0.32546	0.018195	0.017181
3.24	2.8038	0.29796	0.015578	0.014814
3.29	2.4218	0.25183	0.011109	0.018662
3.34	2.0705	0.22715	0.0071658	0.01429
3.39	1.7164	0.19958	0.0046775	0.014292
3.44	1.4025	0.1662	0.0019606	0.013668
3.49	1.0809	0.1364	-0.0015927	0.011009
3.53	0.76123	0.11056	-0.0034098	0.010826
3.58	0.46885	0.07882	-0.0043462	0.0093594
3.63	0.172	0.048095	-0.0054195	0.010054
3.68	-0.069083	0.035978	-0.0056653	0.00668
3.73	-0.36382	0.01307	-0.0063245	0.0048782
3.78	-0.60129	-0.017547	-0.0054295	0.005045
3.83	-0.8022	-0.047722	-0.0056457	0.0067125
3.88	-1.044	-0.060005	-0.006019	0.0041164
3.93	-1.2051	-0.083584	-0.0042983	0.004017
3.98	-1.4166	-0.10274	-0.0044645	0.0041153
4.02	-1.5759	-0.12954	-0.0035723	0.0036114
4.07	-1.7462	-0.1457	-0.0024434	0.0039607
4.12	-1.8659	-0.15761	-0.0022342	0.00095529
4.17	-1.9887	-0.16807	-0.0015989	0.0016642
4.22	-2.0564	-0.17718	-5.5913e-05	0.0024582
4.27	-2.1303	-0.18267	0.00075324	8.5628e-05
4.32	-2.1791	-0.19481	0.00091024	-0.0020286
4.37	-2.2294	-0.19888	0.0015179	-0.0014444
4.42	-2.2578	-0.2087	0.0028892	-0.00023974
4.47	-2.253	-0.21021	0.0035095	-0.00061008
4.52	-2.2609	-0.2117	0.0034715	0.00047673
4.56	-2.2578	-0.21489	0.003085	-0.00082409
4.61	-2.2405	-0.22342	0.0049348	-0.0016104
4.66	-2.2405	-0.22506	0.0042752	-0.00029869
4.71	-2.1996	-0.22819	0.0032023	-0.0012999
4.76	-2.1398	-0.22368	0.0050309	-0.0035398
4.81	-2.08	-0.21745	0.0038876	-0.0018948
4.86	-1.9682	-0.19358	0.0030818	-0.005314
4.91	-1.8391	-0.19044	0.0032109	-0.0049463
4.96	-1.7194	-0.16875	0.0024347	-0.0061356
5.01	-1.5018	-0.16058	0.00092457	-0.0060803
5.06	-1.2857	-0.14517	-0.0001165	-0.0055332
5.1	-1.0425	-0.11852	-0.00040417	-0.0076051
5.15	-0.79271	-0.10327	-0.0014491	-0.0072043
5.2	-0.51899	-0.092327	-0.0029673	-0.0044555
5.25	-0.21332	-0.047351	-0.0036018	-0.010621
5.3	0.072053	-0.035652	-0.0045292	-0.0044152
5.35	0.37199	-0.012937	-0.0057125	-0.0050375
5.4	0.68652	0.0068789	-0.0049801	-0.0057439
5.45	0.98387	0.046579	-0.0048388	-0.0070701
5.5	1.2815	0.067218	-0.0040767	-0.0067183
5.55	1.5825	0.092643	-0.0048133	-0.0047949
5.6	1.9684	0.12257	-0.0040041	-0.00474
5.64	2.2557	0.15888	-0.0027311	-0.0039355
5.69	2.5832	0.19013	-0.00039921	-0.0060762
5.74	2.9701	0.22493	0.00143	-0.0044781
5.79	3.3301	0.26306	0.0038157	-0.0041178
5.84	3.7466	0.29773	0.0060816	-0.0057301
5.89	4.1618	0.31797	0.0087196	-0.0011349
5.94	4.5822	0.37166	0.013579	-0.0040214
5.99	4.9661	0.4128	0.018908	-0.0049345
6.04	5.3582	0.43426	0.023503	-1.7402e-05
6.09	5.7394	0.47645	0.028156	-0.0020816
6.14	6.0805	0.49931	0.033488	0.00071381
6.18	6.4734	0.53677	0.039382	0.001142
6.23	6.8246	0.57768	0.045399	-0.0015962
