% Time() Angle(deg) Cn Ct Cm
0	9.7151	0.88404	0.14046	0.012746
0.05	9.9526	0.89687	0.14326	0.015811
0.1	10.15	0.91684	0.14835	0.015682
0.15	10.37	0.93568	0.16001	0.017694
0.2	10.614	0.9467	0.16569	0.019645
0.25	10.858	0.96638	0.17343	0.01906
0.29	11.026	0.97639	0.17578	0.019947
0.34	11.267	0.99221	0.18493	0.01972
0.39	11.438	1.0124	0.19188	0.019431
0.44	11.64	1.0245	0.20226	0.025639
0.49	11.868	1.0418	0.20527	0.022391
0.54	12.077	1.0563	0.20888	0.020895
0.59	12.266	1.0653	0.21547	0.022596
0.64	12.436	1.0769	0.22207	0.026124
0.69	12.625	1.088	0.22783	0.024989
0.74	12.788	1.0943	0.23088	0.024196
0.79	12.951	1.1132	0.23655	0.022795
0.83	13.152	1.1058	0.24231	0.027561
0.88	13.294	1.1169	0.24508	0.024636
0.93	13.42	1.1263	0.24949	0.029545
0.98	13.57	1.1469	0.25772	0.026841
1.03	13.68	1.1382	0.25856	0.026699
1.08	13.835	1.1434	0.25944	0.023174
1.13	13.932	1.1559	0.26547	0.030329
1.18	14.053	1.1536	0.26921	0.028516
1.23	14.107	1.1567	0.2661	0.02647
1.28	14.197	1.1595	0.26589	0.026561
1.33	14.284	1.1584	0.26739	0.023783
1.37	14.349	1.1681	0.27198	0.022504
1.42	14.418	1.176	0.27277	0.023601
1.47	14.478	1.1555	0.27171	0.023593
1.52	14.522	1.1586	0.27092	0.021663
1.57	14.569	1.1598	0.27084	0.022043
1.62	14.612	1.1545	0.26688	0.019028
1.67	14.615	1.1569	0.26416	0.017172
1.72	14.615	1.1552	0.26565	0.015004
1.77	14.615	1.1537	0.26669	0.015419
1.82	14.612	1.1376	0.26546	0.018442
1.87	14.59	1.1547	0.26613	0.017394
1.91	14.544	1.1402	0.26139	0.016676
1.96	14.507	1.1232	0.26354	0.01872
2.01	14.407	1.1188	0.2605	0.021403
2.06	14.334	1.1161	0.25525	0.019064
2.11	14.244	1.112	0.25522	0.021121
2.16	14.166	1.1035	0.25033	0.025126
2.21	14.053	1.1134	0.25293	0.02452
2.26	13.918	1.1144	0.25366	0.0248
2.31	13.755	1.107	0.24946	0.025733
2.36	13.635	1.1104	0.24816	0.02539
2.41	13.515	1.111	0.24689	0.027679
2.45	13.37	1.0997	0.24096	0.025659
2.5	13.173	1.0933	0.24289	0.030505
2.55	13.011	1.0849	0.23582	0.028663
2.6	12.83	1.0712	0.23049	0.030351
2.65	12.675	1.0712	0.22376	0.025873
2.7	12.504	1.0599	0.21913	0.027278
2.75	12.321	1.0472	0.21429	0.029179
2.8	12.099	1.0517	0.21124	0.02457
2.85	11.897	1.0288	0.20616	0.027889
2.9	11.668	1.0173	0.20206	0.025545
2.95	11.47	0.99704	0.1942	0.027768
2.99	11.288	0.98775	0.18576	0.023906
3.04	11.063	0.98512	0.17788	0.02015
3.09	10.837	0.96587	0.17537	0.022629
3.14	10.656	0.95041	0.16746	0.01939
3.19	10.446	0.92941	0.16087	0.019211
3.24	10.235	0.90649	0.15432	0.020619
3.29	10.021	0.90758	0.15073	0.01913
3.34	9.8056	0.88234	0.14216	0.020458
3.39	9.5874	0.86854	0.13568	0.014807
3.44	9.3435	0.83872	0.1314	0.021434
3.49	9.1513	0.84259	0.12747	0.014911
3.53	8.951	0.81818	0.12215	0.019942
3.58	8.733	0.79809	0.11436	0.015387
3.63	8.5457	0.77696	0.10959	0.016882
3.68	8.3229	0.77602	0.10648	0.015774
3.73	8.1308	0.75715	0.10148	0.016488
3.78	7.9533	0.73179	0.094381	0.015474
3.83	7.7549	0.71272	0.089469	0.014289
3.88	7.55	0.69521	0.084999	0.014628
3.93	7.3678	0.68076	0.082884	0.015408
3.98	7.2324	0.67552	0.080159	0.011871
4.03	7.0631	0.64957	0.073599	0.013728
4.07	6.918	0.64124	0.068823	0.013305
4.12	6.7746	0.62984	0.065735	0.0096067
4.17	6.6425	0.61558	0.063889	0.009936
4.22	6.5346	0.59132	0.061129	0.012629
4.27	6.4444	0.59702	0.057929	0.0073518
4.32	6.3413	0.58211	0.056128	0.0087616
4.37	6.2769	0.57968	0.058274	0.013631
4.42	6.1545	0.58324	0.054364	0.0058602
4.47	6.0853	0.56289	0.052193	0.0098062
4.52	6.0274	0.55904	0.049438	0.0090741
4.57	5.9453	0.54912	0.048932	0.010235
4.61	5.9228	0.54781	0.048983	0.0093998
4.66	5.8761	0.55609	0.048749	0.0074962
4.71	5.8697	0.53094	0.04583	0.010829
4.76	5.8439	0.54152	0.048475	0.012987
4.81	5.8761	0.52871	0.044884	0.011658
4.86	5.8632	0.54221	0.048684	0.010888
4.91	5.8552	0.5411	0.045512	0.0088652
4.96	5.8568	0.53866	0.045857	0.0085254
5.01	5.8568	0.53789	0.045556	0.010677
5.06	5.8648	0.54817	0.047792	0.008449
5.11	5.9067	0.5472	0.046598	0.0076176
5.15	5.9566	0.56138	0.050631	0.0066376
5.2	6.0403	0.54993	0.049873	0.010397
5.25	6.132	0.55987	0.052217	0.01099
5.3	6.2367	0.56252	0.052659	0.01154
5.35	6.2914	0.58507	0.054354	0.0090035
5.4	6.4089	0.59295	0.058516	0.010694
5.45	6.5539	0.59613	0.060738	0.012926
5.5	6.7069	0.62001	0.06181	0.0099006
5.55	6.8181	0.63674	0.067251	0.010904
5.6	6.9777	0.63833	0.070911	0.014244
5.65	7.1534	0.65843	0.072278	0.0089409
5.69	7.3323	0.67455	0.076806	0.011035
5.74	7.4952	0.68834	0.078298	0.012165
5.79	7.6662	0.69979	0.085208	0.013799
5.84	7.871	0.72157	0.088295	0.013305
5.89	8.0744	0.73741	0.092301	0.010215
5.94	8.2487	0.76083	0.097981	0.0075792
5.99	8.4198	0.77187	0.10361	0.013298
6.04	8.6361	0.79142	0.10847	0.013641
6.09	8.8412	0.80691	0.11353	0.012769
6.14	9.0527	0.82037	0.12024	0.013851
6.19	9.2498	0.83011	0.12317	0.014578
6.23	9.4517	0.86306	0.13023	0.013383
