% Time() Angle(deg) Cn Ct Cm
0	2.0578	0.14705	-0.0044429	-0.01909
0.05	3.4937	0.25745	-0.0012669	-0.014525
0.1	4.8494	0.38857	0.0088463	-0.018117
0.15	6.2387	0.50839	0.025308	-0.014022
0.2	7.6142	0.63008	0.049097	-0.011764
0.25	8.9735	0.7545	0.074542	-0.014031
0.29	10.31	0.87316	0.11138	-0.0095278
0.34	11.661	0.98849	0.1486	-0.0066978
0.39	12.948	1.1156	0.19252	-0.010311
0.44	14.202	1.2135	0.24079	-0.0059232
0.49	15.426	1.2896	0.28671	-3.5428e-05
0.54	16.587	1.4122	0.34169	-0.005167
0.59	17.746	1.5365	0.40365	-0.0062612
0.64	18.86	1.6266	0.4615	-0.0084768
0.69	19.909	1.694	0.5117	-0.017495
0.74	20.839	1.7352	0.54609	-0.031877
0.79	21.723	1.7815	0.56526	-0.060763
0.83	22.571	1.8064	0.55899	-0.10181
0.88	23.303	1.868	0.50518	-0.16816
0.93	23.97	1.8969	0.3837	-0.24925
0.98	24.564	1.8328	0.22604	-0.32129
1.03	25.073	1.6614	0.076583	-0.31575
1.08	25.591	1.4953	-0.042309	-0.27866
1.13	26.047	1.3316	-0.10605	-0.24951
1.18	26.491	1.2629	-0.096689	-0.22064
1.23	26.94	1.3067	-0.042192	-0.18097
1.28	27.276	1.4942	-0.01227	-0.19879
1.33	27.496	1.6004	-0.02192	-0.23992
1.37	27.496	1.5028	-0.056139	-0.25293
1.42	27.499	1.3094	-0.084913	-0.21729
1.47	27.496	1.2209	-0.086488	-0.19633
1.52	27.535	1.2006	-0.07416	-0.17962
1.57	27.544	1.1626	-0.069083	-0.16198
1.62	27.474	1.1557	-0.058044	-0.15881
1.67	27.197	1.0771	-0.066661	-0.15085
1.72	26.806	0.94973	-0.072442	-0.12737
1.77	26.4	0.87566	-0.072063	-0.11159
1.82	25.947	0.85087	-0.075726	-0.10704
1.87	25.437	0.84564	-0.07286	-0.097786
1.91	24.921	0.85907	-0.076006	-0.10089
1.96	24.311	0.82335	-0.085091	-0.094577
2.01	23.611	0.74312	-0.086016	-0.073572
2.06	22.852	0.67363	-0.08491	-0.06164
2.11	22.075	0.6155	-0.075258	-0.05089
2.16	21.266	0.56119	-0.069629	-0.042829
2.21	20.443	0.50316	-0.064323	-0.032313
2.26	19.535	0.4441	-0.058596	-0.020714
2.31	18.604	0.38032	-0.041701	-0.0045106
2.36	17.598	0.31675	-0.015628	0.025164
2.41	16.589	0.2789	0.017673	0.056278
2.45	15.495	0.30366	0.045899	0.065852
2.5	14.371	0.37527	0.063771	0.060761
2.55	13.214	0.41853	0.072385	0.052518
2.6	11.966	0.43228	0.073779	0.055907
2.65	10.751	0.43214	0.074841	0.063159
2.7	9.4765	0.42461	0.070725	0.062911
2.75	8.2181	0.40748	0.062694	0.063368
2.8	6.9421	0.38825	0.050104	0.058148
2.85	5.6201	0.3515	0.038178	0.047187
2.9	4.2928	0.29289	0.026366	0.038819
2.95	2.9641	0.19908	0.012051	0.033975
2.99	1.5247	0.10206	0.0023619	0.025557
3.04	0.1062	0.0024905	-0.0038316	0.026678
3.09	-1.2955	-0.10866	-0.0068726	0.023797
3.14	-2.6941	-0.21182	-0.0034622	0.018965
3.19	-4.0954	-0.34404	0.0028044	0.017763
3.24	-5.468	-0.46059	0.018502	0.017229
3.29	-6.8083	-0.58943	0.036113	0.018315
3.34	-8.2052	-0.68421	0.060188	0.015143
3.39	-9.6317	-0.77501	0.088294	0.0098889
3.44	-10.974	-0.89906	0.12468	0.010193
3.49	-12.328	-1.0404	0.16874	0.011189
3.53	-13.621	-1.1905	0.22392	0.0091796
3.58	-14.89	-1.3202	0.28042	0.006193
3.63	-16.102	-1.4245	0.33427	0.0088359
3.68	-17.303	-1.4836	0.38345	0.0075489
3.73	-18.442	-1.5174	0.42672	0.0085326
3.78	-19.538	-1.565	0.46524	0.015868
3.83	-20.585	-1.6233	0.50976	0.028866
3.88	-21.561	-1.6967	0.55152	0.048456
3.93	-22.461	-1.8055	0.58032	0.085041
3.98	-23.265	-1.8981	0.56948	0.14107
4.03	-23.991	-1.939	0.4833	0.21233
4.07	-24.632	-1.9261	0.32054	0.29879
4.12	-25.199	-1.7622	0.18997	0.32332
4.17	-25.667	-1.5235	0.06818	0.29633
4.22	-26.164	-1.3614	-0.012933	0.27986
4.27	-26.683	-1.2765	0.012295	0.19746
4.32	-27.243	-1.3776	0.06505	0.18054
4.37	-27.672	-1.522	0.075563	0.21171
4.42	-27.926	-1.5245	0.052408	0.22337
4.47	-28.005	-1.3781	0.012742	0.20571
4.52	-28.015	-1.1977	-0.014095	0.18014
4.57	-28.073	-1.1353	-0.023021	0.16522
4.61	-28.097	-1.1494	-0.025526	0.15568
4.66	-28.232	-1.1891	-0.033716	0.1603
4.71	-28.232	-1.2174	-0.028983	0.16067
4.76	-28.173	-1.1838	-0.035757	0.1661
4.81	-27.943	-1.0579	-0.049252	0.14269
4.86	-27.633	-0.96225	-0.069629	0.13754
4.91	-27.202	-0.88356	-0.064944	0.11853
4.96	-26.779	-0.85636	-0.063615	0.10264
5.01	-26.225	-0.86314	-0.057543	0.099624
5.06	-25.621	-0.83997	-0.064183	0.093942
5.11	-25.045	-0.79386	-0.072046	0.080531
5.15	-24.411	-0.74587	-0.068201	0.067507
5.2	-23.73	-0.67478	-0.063166	0.054748
5.25	-22.964	-0.6174	-0.054991	0.049165
5.3	-22.146	-0.55749	-0.054729	0.042666
5.35	-21.353	-0.49841	-0.064245	0.031869
5.4	-20.345	-0.4828	-0.058231	0.027729
5.45	-19.432	-0.44792	-0.051792	0.010678
5.5	-18.385	-0.43322	-0.0461	0.0087763
5.55	-17.384	-0.37299	-0.028072	-0.0064873
5.6	-16.32	-0.2902	0.0044257	-0.039987
5.64	-15.214	-0.2761	0.032954	-0.061524
5.69	-14.056	-0.32458	0.051392	-0.059314
5.74	-12.861	-0.39393	0.063969	-0.047232
5.79	-11.649	-0.42243	0.072291	-0.055608
5.84	-10.424	-0.43686	0.07054	-0.061987
5.89	-9.1325	-0.42961	0.067476	-0.063381
5.94	-7.8556	-0.39692	0.055716	-0.061595
5.99	-6.5521	-0.35727	0.045954	-0.055425
6.04	-5.2111	-0.3314	0.032342	-0.039317
6.09	-3.8572	-0.2303	0.01955	-0.038123
6.14	-2.4587	-0.17167	0.0094908	-0.028599
6.18	-1.0565	-0.072238	0.00053511	-0.026418
6.23	0.37597	0.02017	-0.0039199	-0.025856
