% Time() Angle(deg) Cn Ct Cm
0	8.9461	0.77212	0.093254	0.0024492
0.05	9.3403	0.80825	0.1023	0.0031229
0.1	9.6844	0.84731	0.11209	0.0025576
0.15	10.058	0.87653	0.12253	0.0037676
0.2	10.478	0.90633	0.13408	0.0025435
0.25	10.846	0.94016	0.14717	0.0058112
0.29	11.215	0.97097	0.15825	0.0050837
0.34	11.569	0.99961	0.17127	0.0058421
0.39	11.909	1.0299	0.1819	0.0084353
0.44	12.264	1.0643	0.19472	0.0062299
0.49	12.594	1.0982	0.21	0.0094141
0.54	12.919	1.1326	0.22003	0.0078453
0.59	13.262	1.156	0.23252	0.0079345
0.64	13.527	1.1696	0.24505	0.011878
0.69	13.813	1.2006	0.25911	0.01359
0.74	14.099	1.2074	0.26791	0.01515
0.79	14.357	1.2307	0.28056	0.017019
0.83	14.577	1.2491	0.28907	0.01451
0.88	14.819	1.2629	0.29652	0.015492
0.93	15.024	1.2683	0.30636	0.017782
0.98	15.222	1.2842	0.31413	0.015714
1.03	15.398	1.2893	0.32116	0.018028
1.08	15.545	1.2948	0.32773	0.019133
1.13	15.674	1.3078	0.33253	0.017591
1.18	15.808	1.3144	0.33699	0.014309
1.23	15.908	1.3151	0.34313	0.018694
1.28	15.99	1.312	0.34483	0.020379
1.33	16.052	1.3164	0.34641	0.017944
1.37	16.098	1.3077	0.3465	0.018294
1.42	16.086	1.3119	0.34584	0.014396
1.47	16.123	1.2958	0.34566	0.017762
1.52	16.129	1.2987	0.3426	0.013631
1.57	16.126	1.2903	0.34166	0.014749
1.62	16.098	1.2826	0.33776	0.010309
1.67	16.118	1.2724	0.33529	0.012566
1.72	16.089	1.2582	0.32969	0.010057
1.77	16.066	1.2497	0.3246	0.0067261
1.82	15.968	1.2266	0.31799	0.0084216
1.87	15.876	1.2141	0.31123	0.0096923
1.91	15.711	1.1884	0.30211	0.0089601
1.96	15.584	1.159	0.29182	0.011261
2.01	15.408	1.1337	0.28201	0.012029
2.06	15.198	1.1146	0.27211	0.011271
2.11	14.98	1.0886	0.26214	0.012775
2.16	14.761	1.0609	0.2514	0.014918
2.21	14.519	1.0328	0.24064	0.013105
2.26	14.278	1.0138	0.23063	0.016984
2.31	14.029	0.98283	0.22038	0.020172
2.36	13.745	0.95946	0.21126	0.022221
2.41	13.444	0.93672	0.20518	0.027051
2.45	13.123	0.9185	0.19623	0.028234
2.5	12.78	0.88581	0.18695	0.031307
2.55	12.439	0.86778	0.17829	0.035986
2.6	12.103	0.85461	0.16997	0.032554
2.65	11.771	0.82768	0.16199	0.034261
2.7	11.422	0.80661	0.15664	0.037934
2.75	11.057	0.7866	0.14769	0.039936
2.8	10.725	0.75329	0.14038	0.043719
2.85	10.37	0.74699	0.13591	0.04446
2.9	10.006	0.73701	0.13001	0.040763
2.95	9.6553	0.70606	0.12255	0.045858
2.99	9.2579	0.68996	0.11524	0.045008
3.04	8.8912	0.68057	0.10783	0.040942
3.09	8.4763	0.64487	0.10161	0.046356
3.14	8.1373	0.6443	0.093325	0.036642
3.19	7.7146	0.62051	0.086709	0.039029
3.24	7.3226	0.61195	0.080761	0.03166
3.29	6.9696	0.57923	0.073921	0.031218
3.34	6.5684	0.56592	0.066057	0.028226
3.39	6.2109	0.54795	0.061329	0.025749
3.44	5.8665	0.52581	0.054465	0.022456
3.49	5.4965	0.50185	0.049322	0.021714
3.53	5.1669	0.47812	0.044187	0.019736
3.58	4.7942	0.45177	0.039855	0.020555
3.63	4.4843	0.42584	0.034159	0.016586
3.68	4.1346	0.40853	0.029152	0.01431
3.73	3.8123	0.37834	0.02617	0.015102
3.78	3.5319	0.35087	0.021527	0.01475
3.83	3.2501	0.3297	0.016975	0.013595
3.88	2.9525	0.29118	0.014395	0.016262
3.93	2.6886	0.27597	0.010477	0.013516
3.98	2.441	0.25728	0.0074651	0.0092116
4.02	2.227	0.23721	0.0043682	0.0079749
4.07	2.0243	0.22282	0.004106	0.006674
4.12	1.8153	0.20409	0.0015825	0.0075741
4.17	1.6463	0.18235	0.00056096	0.0059513
4.22	1.4742	0.15067	-0.0014014	0.0096768
4.27	1.3245	0.15237	-0.00098422	0.002721
4.32	1.2035	0.13843	-0.0020096	0.0023362
4.37	1.1127	0.12058	-0.0043431	0.004072
4.42	0.99341	0.111	-0.004532	0.0023508
4.47	0.92342	0.10508	-0.0049982	0.0027806
4.52	0.87412	0.098229	-0.004293	0.003341
4.56	0.83436	0.082871	-0.0043054	0.0038858
4.61	0.78508	0.0846	-0.0058956	0.00092353
4.66	0.80256	0.081228	-0.0048999	0.0007411
4.71	0.78825	0.068542	-0.0045393	0.0033093
4.76	0.7978	0.088081	-0.0047095	-0.0026116
4.81	0.80097	0.071779	-0.0051457	0.0018632
4.86	0.83118	0.077814	-0.0049975	-0.00072376
4.91	0.8614	0.075486	-0.006692	0.00063591
4.96	0.92183	0.08307	-0.0042666	-0.00069209
5.01	1.0205	0.082671	-0.0046921	-0.00039642
5.06	1.143	0.091127	-0.003838	0.00012688
5.1	1.291	0.11204	-0.0034771	-0.003654
5.15	1.4264	0.12674	-0.0028982	-0.0046157
5.2	1.5794	0.13657	-0.0035919	-0.002099
5.25	1.8233	0.15707	-0.0034389	-0.0034813
5.3	2.0737	0.17622	-0.0030398	-0.0033868
5.35	2.3371	0.20228	5.1908e-05	-0.0045954
5.4	2.5592	0.22204	-0.00067368	-0.0034422
5.45	2.8581	0.23407	0.0015233	-0.0013151
5.5	3.1445	0.25994	0.0051223	-0.0031845
5.55	3.4182	0.28871	0.0061499	-0.0020442
5.6	3.7434	0.31679	0.0084392	-0.0037695
5.64	4.0079	0.33528	0.011127	-0.00087661
5.69	4.364	0.37863	0.013904	-0.0054975
5.74	4.6946	0.40043	0.018317	-0.0028377
5.79	5.0143	0.43465	0.024316	-0.0025051
5.84	5.4193	0.46365	0.027251	0.00022968
5.89	5.7667	0.50062	0.032276	0.0010949
5.94	6.1465	0.53463	0.03781	-0.0025807
5.99	6.541	0.56742	0.04471	0.00057624
6.04	6.8987	0.59894	0.05252	0.00012009
6.09	7.313	0.62452	0.059682	0.0028769
6.14	7.671	0.66423	0.065439	0.00066905
6.18	8.0631	0.6997	0.074227	0.00065775
6.23	8.4424	0.73447	0.081975	-0.00084254
