% Time() Angle(deg) Cn Ct Cm
0	8.8073	0.78507	0.075482	-0.018459
0.05	9.2902	0.81151	0.083845	-0.016203
0.1	9.7862	0.85664	0.096937	-0.014469
0.15	10.252	0.8952	0.10727	-0.01337
0.2	10.775	0.94371	0.1218	-0.013813
0.25	11.306	0.99285	0.1359	-0.016858
0.29	11.729	1.0333	0.15104	-0.01504
0.34	12.234	1.0769	0.16557	-0.016176
0.39	12.749	1.1074	0.18244	-0.011847
0.44	13.244	1.155	0.19937	-0.014296
0.49	13.685	1.1881	0.21648	-0.009258
0.54	14.166	1.2415	0.23418	-0.014178
0.59	14.612	1.2764	0.25301	-0.0091875
0.64	15.029	1.308	0.26996	-0.0085395
0.69	15.486	1.3365	0.2844	-0.0090563
0.74	15.886	1.3724	0.30462	-0.0068507
0.79	16.24	1.4009	0.32175	-0.0080391
0.83	16.608	1.4267	0.33883	-0.0043127
0.88	16.928	1.458	0.3557	-0.0028987
0.93	17.262	1.4764	0.37277	-0.0034323
0.98	17.547	1.4911	0.3884	0.0018124
1.03	17.802	1.5058	0.40181	0.0017946
1.08	18.037	1.5212	0.41748	0.0032302
1.13	18.251	1.5319	0.42838	0.0052872
1.18	18.425	1.5497	0.43996	0.0054065
1.23	18.556	1.5462	0.45033	0.0073708
1.28	18.683	1.554	0.46097	0.0072092
1.33	18.788	1.5576	0.46508	0.0075831
1.37	18.853	1.5488	0.47127	0.0099703
1.42	18.86	1.5491	0.47322	0.010044
1.47	18.884	1.5471	0.47346	0.0067952
1.52	18.91	1.543	0.47038	0.0024559
1.57	18.836	1.5301	0.46784	0.0029413
1.62	18.815	1.5164	0.46267	0.0047792
1.67	18.723	1.5035	0.45738	-0.00042565
1.72	18.656	1.4956	0.45175	-0.00062682
1.77	18.55	1.4994	0.44514	-0.0077716
1.82	18.42	1.487	0.43804	-0.011435
1.87	18.331	1.464	0.43093	-0.01306
1.91	18.196	1.438	0.42	-0.012999
1.96	18.01	1.3995	0.41056	-0.0099104
2.01	17.81	1.3839	0.39636	-0.014308
2.06	17.613	1.3623	0.38541	-0.012944
2.11	17.386	1.3297	0.37248	-0.013509
2.16	17.127	1.2966	0.35509	-0.014599
2.21	16.883	1.2619	0.33774	-0.011986
2.26	16.64	1.2355	0.32237	-0.014672
2.31	16.337	1.1867	0.30465	-0.010632
2.36	16.032	1.1506	0.28828	-0.0072547
2.41	15.707	1.0971	0.27234	-0.0038895
2.45	15.366	1.0585	0.25524	-0.0045995
2.5	15.026	1.0192	0.23639	-0.0037769
2.55	14.677	0.98634	0.22355	-0.002054
2.6	14.271	0.93883	0.20676	0.00084198
2.65	13.887	0.88415	0.19373	0.010983
2.7	13.48	0.85013	0.18309	0.017069
2.75	13.037	0.79359	0.16929	0.027301
2.8	12.62	0.75522	0.15649	0.029773
2.85	12.214	0.69948	0.14414	0.034451
2.9	11.69	0.68245	0.13163	0.033644
2.95	11.268	0.6269	0.12209	0.04261
2.99	10.814	0.59208	0.1135	0.045873
3.04	10.337	0.54969	0.10331	0.053018
3.09	9.8718	0.52322	0.094277	0.053643
3.14	9.4016	0.4801	0.08633	0.058374
3.19	8.9364	0.44694	0.078238	0.061658
3.24	8.452	0.41925	0.072007	0.064473
3.29	7.9727	0.3847	0.063204	0.065856
3.34	7.4952	0.35976	0.058199	0.068245
3.39	7.0196	0.33018	0.050546	0.069836
3.44	6.5442	0.29877	0.043745	0.07206
3.49	6.0708	0.26126	0.038445	0.075542
3.53	5.6235	0.24564	0.03342	0.070767
3.58	5.146	0.22306	0.029725	0.071116
3.63	4.7027	0.19832	0.02357	0.069827
3.68	4.2565	0.18057	0.021126	0.06805
3.73	3.8492	0.16282	0.018512	0.066116
3.78	3.4054	0.13757	0.013318	0.0663
3.83	3.0069	0.12281	0.0093982	0.060541
3.88	2.5991	0.111	0.0073701	0.053997
3.93	2.2509	0.09251	0.0042467	0.053511
3.98	1.8982	0.089088	0.0031211	0.045029
4.03	1.5252	0.07252	0.0027975	0.040486
4.07	1.2226	0.050512	-0.0012073	0.042091
4.12	0.89479	0.056667	-0.0016536	0.031755
4.17	0.65791	0.046263	-0.0027728	0.026807
4.22	0.38628	0.031237	-0.0049328	0.023415
4.27	0.172	0.022429	-0.0054887	0.020651
4.32	-0.016758	0.009772	-0.0040621	0.017254
4.37	-0.18479	0.013747	-0.0067453	0.011258
4.42	-0.36224	-0.0015413	-0.0065042	0.011859
4.47	-0.47625	-0.0053071	-0.0055989	0.010091
4.52	-0.52057	-0.0098771	-0.0062072	0.0065669
4.57	-0.63452	0.0030625	-0.0067368	0.001156
4.61	-0.64876	-0.0038432	-0.0059237	0.0018
4.66	-0.6456	-0.002407	-0.0074452	-0.0014982
4.71	-0.64085	0.0061243	-0.0068818	-0.0020658
4.76	-0.59971	0.0058821	-0.0058207	-0.00247
4.81	-0.56173	0.0067146	-0.0046143	-0.0018475
4.86	-0.48575	0.01581	-0.006673	-0.0028618
4.91	-0.424	0.020009	-0.0063855	-0.0048808
4.96	-0.32739	0.019149	-0.0077972	-0.004584
5.01	-0.19906	0.025821	-0.005783	-0.0026405
5.06	-0.070668	0.032528	-0.0061005	-0.0035983
5.11	0.10378	0.058976	-0.0059608	-0.010267
5.15	0.2942	0.064007	-0.0071217	-0.0070576
5.2	0.48315	0.077277	-0.006362	-0.0073291
5.25	0.71195	0.10051	-0.005395	-0.0093081
5.3	0.92978	0.12429	-0.0056149	-0.010168
5.35	1.2098	0.15186	-0.0055655	-0.014179
5.4	1.4455	0.16967	-0.0036505	-0.012985
5.45	1.7547	0.19306	-0.0036116	-0.012364
5.5	2.0482	0.22486	-0.0021581	-0.015067
5.55	2.3771	0.23661	-0.00045195	-0.014986
5.6	2.6535	0.27562	-0.00095706	-0.017088
5.64	3.0069	0.28656	0.0017912	-0.011774
5.69	3.359	0.3221	0.003595	-0.015591
5.74	3.7498	0.35274	0.0051173	-0.017104
5.79	4.1442	0.38266	0.0076543	-0.015694
5.84	4.5582	0.41898	0.010896	-0.017097
5.89	4.9307	0.45467	0.014838	-0.018464
5.94	5.3839	0.49624	0.019911	-0.017971
5.99	5.8005	0.53305	0.025177	-0.018022
6.04	6.235	0.56775	0.029387	-0.019764
6.09	6.7182	0.60655	0.037266	-0.019316
6.14	7.1969	0.6404	0.043901	-0.018074
6.18	7.6484	0.68298	0.051214	-0.020917
6.23	8.1212	0.70667	0.060214	-0.017303
