% Time() Angle(deg) Cn Ct Cm
0	12.749	1.1314	0.21924	0.0079566
0.05	13.155	1.1612	0.23184	0.0079585
0.1	13.499	1.1889	0.24555	0.0085408
0.15	13.935	1.2146	0.25799	0.011204
0.2	14.304	1.2288	0.27116	0.011363
0.25	14.685	1.261	0.28476	0.010034
0.29	15.095	1.2938	0.29925	0.0066257
0.34	15.45	1.3195	0.31538	0.0089124
0.39	15.826	1.3556	0.332	0.0080724
0.44	16.187	1.3783	0.3489	0.0094233
0.49	16.547	1.4152	0.36316	0.0046386
0.54	16.862	1.4355	0.37594	0.0050817
0.59	17.194	1.4464	0.38888	0.0066115
0.64	17.511	1.4652	0.40169	0.0073915
0.69	17.855	1.4879	0.41032	-0.0024969
0.74	18.126	1.5	0.41931	-0.0022845
0.79	18.417	1.5108	0.42606	-0.0079173
0.83	18.701	1.5074	0.4321	-0.0097084
0.88	18.974	1.5218	0.43619	-0.014986
0.93	19.202	1.5362	0.439	-0.025338
0.98	19.453	1.5391	0.44016	-0.031193
1.03	19.66	1.546	0.44022	-0.039666
1.08	19.892	1.5671	0.43664	-0.051578
1.13	20.033	1.5813	0.42867	-0.065883
1.18	20.206	1.5707	0.41996	-0.068493
1.23	20.379	1.5801	0.40097	-0.086989
1.28	20.481	1.5897	0.37879	-0.10174
1.33	20.587	1.5962	0.3506	-0.12348
1.37	20.705	1.6058	0.31055	-0.1503
1.42	20.757	1.5779	0.26942	-0.17396
1.47	20.832	1.5509	0.21767	-0.19979
1.52	20.844	1.4526	0.17286	-0.20156
1.57	20.873	1.3328	0.13813	-0.18335
1.62	20.868	1.2682	0.12197	-0.17749
1.67	20.875	1.1798	0.11508	-0.14754
1.72	20.881	1.1074	0.12375	-0.11765
1.77	20.87	1.0717	0.13753	-0.09341
1.82	20.872	1.0586	0.16315	-0.06751
1.87	20.843	1.1114	0.18305	-0.073139
1.91	20.811	1.1173	0.1958	-0.069687
1.96	20.697	1.1189	0.20177	-0.071646
2.01	20.558	1.0817	0.19776	-0.060274
2.06	20.386	1.0031	0.19819	-0.037571
2.11	20.206	1.0007	0.19411	-0.040778
2.16	20.013	0.98141	0.19158	-0.035514
2.21	19.82	0.96137	0.19041	-0.029952
2.26	19.564	0.94237	0.18711	-0.025611
2.31	19.376	0.91629	0.18613	-0.01694
2.36	19.12	0.90305	0.18261	-0.011937
2.41	18.884	0.87323	0.18267	0.00097008
2.45	18.592	0.86505	0.17754	0.0020207
2.5	18.32	0.84469	0.17385	0.0062303
2.55	18.002	0.83227	0.17043	0.0082456
2.6	17.725	0.81496	0.16552	0.013497
2.65	17.333	0.7897	0.16133	0.020241
2.7	16.967	0.78425	0.15485	0.016122
2.75	16.663	0.76218	0.15414	0.026259
2.8	16.298	0.74182	0.15113	0.029513
2.85	15.963	0.73731	0.14729	0.027345
2.9	15.602	0.72688	0.14598	0.032129
2.95	15.273	0.71111	0.14467	0.035508
2.99	14.911	0.7081	0.14394	0.03869
3.04	14.506	0.70601	0.14342	0.042294
3.09	14.189	0.69714	0.14037	0.046115
3.14	13.763	0.69396	0.13649	0.046958
3.19	13.397	0.70103	0.1368	0.047703
3.24	12.987	0.68715	0.13524	0.049616
3.29	12.594	0.68916	0.13188	0.050753
3.34	12.222	0.67727	0.12974	0.054587
3.39	11.85	0.67097	0.12673	0.053459
3.44	11.493	0.66233	0.1226	0.056583
3.49	11.066	0.65528	0.12	0.052434
3.53	10.727	0.65211	0.11309	0.049083
3.58	10.37	0.63885	0.11034	0.05026
3.63	10.035	0.6313	0.1057	0.045808
3.68	9.6876	0.62058	0.10036	0.047896
3.73	9.3289	0.61881	0.096359	0.043841
3.78	8.9962	0.6237	0.094367	0.042418
3.83	8.7007	0.619	0.091378	0.039103
3.88	8.3875	0.62151	0.089205	0.036369
3.93	8.0792	0.61851	0.086414	0.034003
3.98	7.7839	0.61669	0.08305	0.032823
4.02	7.5113	0.61756	0.080028	0.030065
4.07	7.2694	0.60734	0.074837	0.02571
4.12	7.0421	0.59837	0.071379	0.024315
4.17	6.7956	0.58428	0.067359	0.022993
4.22	6.5942	0.57909	0.063558	0.020579
4.27	6.4009	0.56281	0.060958	0.017517
4.32	6.2189	0.55193	0.058171	0.018076
4.37	6.0612	0.55511	0.055011	0.014259
4.42	5.9163	0.54661	0.053567	0.012937
4.47	5.8085	0.53616	0.050554	0.0148
4.52	5.7152	0.54075	0.051002	0.011692
4.56	5.638	0.53035	0.04824	0.013568
4.61	5.5881	0.54235	0.047588	0.0097022
4.66	5.511	0.54215	0.045509	0.0094449
4.71	5.4884	0.52397	0.047442	0.013307
4.76	5.4482	0.53062	0.047656	0.012317
4.81	5.4611	0.52953	0.045859	0.0097944
4.86	5.4434	0.52132	0.044313	0.010109
4.91	5.4756	0.51893	0.04363	0.0092266
4.96	5.4981	0.52753	0.044231	0.0078677
5.01	5.5029	0.52604	0.042128	0.0052376
5.06	5.5833	0.52628	0.042399	0.0059675
5.1	5.6734	0.53097	0.043833	0.0062281
5.15	5.7458	0.54104	0.044364	0.003849
5.2	5.9019	0.56079	0.046098	0.0025257
5.25	6.0692	0.57615	0.047692	0.0026241
5.3	6.2415	0.5823	0.051069	0.0031019
5.35	6.4508	0.61123	0.055354	0.00031292
5.4	6.6828	0.61913	0.057681	0.0053239
5.45	6.9084	0.63221	0.061866	0.004308
5.5	7.1711	0.65183	0.065653	0.0035405
5.55	7.4258	0.67418	0.069786	0.0029946
5.6	7.7178	0.69658	0.074298	0.0032165
5.64	8.0033	0.71724	0.079599	0.0023706
5.69	8.2793	0.74489	0.087	0.0019385
5.74	8.6038	0.77299	0.093197	0.0019513
5.79	8.972	0.79669	0.10026	0.003412
5.84	9.2821	0.83432	0.11017	0.0025537
5.89	9.623	0.8633	0.12014	0.0052965
5.94	9.9882	0.888	0.13027	0.0058764
5.99	10.349	0.92754	0.14071	0.0042169
6.04	10.74	0.97254	0.15214	0.0029144
6.09	11.084	1.0062	0.16391	0.0031303
6.14	11.47	1.0406	0.17714	0.0057135
6.18	11.867	1.087	0.19197	0.0040009
6.23	12.229	1.1054	0.20536	0.0065494
