% Time() Angle(deg) Cn Ct Cm
0	16.128	1.2849	0.31147	0.010307
0.05	16.439	1.2883	0.31085	0.00046114
0.1	16.774	1.3114	0.31963	-0.0019016
0.15	17.175	1.3388	0.33308	-0.0038049
0.2	17.514	1.3422	0.34671	-0.0021339
0.25	17.854	1.3867	0.36567	-0.0057541
0.29	18.249	1.4269	0.38454	-0.0083517
0.34	18.559	1.4534	0.39946	-0.012402
0.39	18.962	1.5069	0.41965	-0.016106
0.44	19.351	1.5599	0.43687	-0.027604
0.49	19.7	1.5923	0.45505	-0.032069
0.54	20.115	1.6274	0.47208	-0.039726
0.59	20.477	1.6419	0.48074	-0.047498
0.64	20.923	1.685	0.49119	-0.063674
0.69	21.317	1.7093	0.49568	-0.075257
0.74	21.727	1.7062	0.4894	-0.089375
0.79	22.084	1.6965	0.47798	-0.1052
0.83	22.477	1.7166	0.46449	-0.12815
0.88	22.859	1.7211	0.4369	-0.15299
0.93	23.23	1.7356	0.40879	-0.18349
0.98	23.589	1.7751	0.38506	-0.20682
1.03	23.954	1.7806	0.34234	-0.23938
1.08	24.325	1.804	0.30618	-0.25574
1.13	24.686	1.7961	0.252	-0.28719
1.18	25.021	1.7806	0.20965	-0.28727
1.23	25.352	1.7463	0.15419	-0.27037
1.28	25.69	1.699	0.095339	-0.26226
1.33	25.971	1.6234	0.031438	-0.25473
1.37	26.276	1.5834	-0.017867	-0.2498
1.42	26.558	1.5427	-0.057353	-0.26106
1.47	26.863	1.462	-0.07052	-0.24174
1.52	27.109	1.3601	-0.078711	-0.22408
1.57	27.334	1.3263	-0.089737	-0.23215
1.62	27.579	1.2502	-0.082542	-0.20545
1.67	27.806	1.2486	-0.076967	-0.2048
1.72	27.987	1.207	-0.065994	-0.1843
1.77	28.131	1.2101	-0.062081	-0.18262
1.82	28.306	1.2065	-0.050341	-0.17288
1.87	28.461	1.2329	-0.056502	-0.18146
1.91	28.574	1.2613	-0.055474	-0.18276
1.96	28.642	1.2919	-0.060388	-0.19219
2.01	28.711	1.2973	-0.065187	-0.19591
2.06	28.794	1.2926	-0.071137	-0.19265
2.11	28.846	1.2449	-0.072177	-0.19008
2.16	28.822	1.2276	-0.074561	-0.19338
2.21	28.861	1.2042	-0.074655	-0.18359
2.26	28.856	1.1926	-0.074465	-0.18231
2.31	28.856	1.1682	-0.075889	-0.17321
2.36	28.836	1.1642	-0.081593	-0.17734
2.41	28.798	1.1959	-0.086084	-0.19281
2.45	28.74	1.1708	-0.083013	-0.17824
2.5	28.667	1.1331	-0.075589	-0.16634
2.55	28.532	1.1054	-0.071656	-0.15552
2.6	28.41	1.0678	-0.068011	-0.14827
2.65	28.229	1.0376	-0.064885	-0.13898
2.7	28.051	1.0004	-0.066866	-0.13164
2.75	27.84	0.98928	-0.070182	-0.12808
2.8	27.593	0.99523	-0.072457	-0.12905
2.85	27.357	0.98779	-0.070266	-0.13273
2.9	27.12	0.96534	-0.070639	-0.12362
2.95	26.868	0.97373	-0.069041	-0.12359
2.99	26.566	0.97483	-0.071403	-0.12642
3.04	26.309	0.95108	-0.074555	-0.12174
3.09	26.039	0.94022	-0.078263	-0.12036
3.14	25.747	0.90419	-0.078175	-0.11116
3.19	25.46	0.87922	-0.079077	-0.10703
3.24	25.155	0.83577	-0.079309	-0.096736
3.29	24.847	0.79066	-0.080826	-0.092185
3.34	24.505	0.75033	-0.080187	-0.084582
3.39	24.159	0.72757	-0.080777	-0.080883
3.44	23.804	0.6945	-0.075673	-0.072297
3.49	23.438	0.665	-0.075105	-0.066683
3.53	23.054	0.64451	-0.075839	-0.059665
3.58	22.697	0.62982	-0.076015	-0.055206
3.63	22.339	0.62664	-0.077481	-0.056949
3.68	21.929	0.60105	-0.078268	-0.055308
3.73	21.584	0.57324	-0.080389	-0.042469
3.78	21.21	0.54978	-0.081198	-0.036721
3.83	20.833	0.53712	-0.081067	-0.038944
3.88	20.453	0.51302	-0.07946	-0.032828
3.93	20.07	0.48376	-0.080066	-0.030395
3.98	19.71	0.45437	-0.079805	-0.020455
4.03	19.33	0.43059	-0.076513	-0.021589
4.07	18.959	0.3954	-0.076286	-0.013544
4.12	18.592	0.39347	-0.076551	-0.017311
4.17	18.246	0.35554	-0.069164	-0.0087169
4.22	17.86	0.33206	-0.067602	-0.0020512
4.27	17.539	0.32614	-0.062207	0.00019513
4.32	17.217	0.30888	-0.055648	0.0037705
4.37	16.896	0.28979	-0.044978	0.010511
4.42	16.576	0.28878	-0.037014	0.013778
4.47	16.268	0.27695	-0.027793	0.022334
4.52	15.986	0.24161	-0.020187	0.039087
4.57	15.694	0.26142	-0.0031908	0.043225
4.61	15.424	0.25169	0.0030689	0.054056
4.66	15.177	0.27092	0.016214	0.048055
4.71	14.921	0.31068	0.025999	0.045423
4.76	14.712	0.36606	0.041772	0.045064
4.81	14.478	0.39787	0.048178	0.041782
4.86	14.25	0.437	0.060317	0.044152
4.91	14.087	0.46517	0.070998	0.048685
4.96	13.916	0.49498	0.078061	0.045001
5.01	13.743	0.52711	0.087026	0.044469
5.06	13.617	0.59017	0.094576	0.038736
5.1	13.491	0.61441	0.10068	0.031839
5.15	13.433	0.64609	0.10443	0.027787
5.2	13.381	0.72969	0.12388	0.037703
5.25	13.31	0.71035	0.1226	0.032951
5.3	13.273	0.73716	0.13406	0.04111
5.35	13.247	0.73705	0.13753	0.038098
5.4	13.252	0.81398	0.15445	0.044682
5.45	13.254	0.83255	0.15737	0.036308
5.5	13.234	0.8305	0.15978	0.035889
5.55	13.26	0.86736	0.17117	0.036742
5.6	13.307	0.89762	0.17361	0.03516
5.64	13.342	0.90136	0.17885	0.029528
5.69	13.426	0.94248	0.18201	0.026955
5.74	13.514	0.95388	0.19408	0.030994
5.79	13.666	0.9759	0.1976	0.022386
5.84	13.822	1.0017	0.20448	0.023992
5.89	14.024	1.0261	0.2139	0.024015
5.94	14.239	1.0601	0.22378	0.022091
5.99	14.464	1.0878	0.23533	0.02363
6.04	14.704	1.1294	0.24689	0.01925
6.09	14.979	1.1602	0.26072	0.016783
6.14	15.214	1.1924	0.27493	0.016478
6.18	15.479	1.2212	0.28603	0.014338
6.23	15.771	1.2364	0.29242	0.015694
