% Time() Angle(deg) Cn Ct Cm
0	16.579	1.4299	0.34621	-0.0047577
0.05	16.943	1.4686	0.3638	-0.0096641
0.1	17.379	1.487	0.3825	-0.0056348
0.15	17.748	1.5193	0.40031	-0.0072924
0.2	18.156	1.5544	0.42046	-0.0097584
0.25	18.553	1.5638	0.43656	-0.0072772
0.29	18.93	1.5968	0.45617	-0.0078398
0.34	19.275	1.6238	0.47595	-0.0098913
0.39	19.643	1.6456	0.48875	-0.011671
0.44	19.969	1.6629	0.5028	-0.016529
0.49	20.317	1.6924	0.51633	-0.021812
0.54	20.63	1.7179	0.53103	-0.027492
0.59	20.945	1.7237	0.5417	-0.029409
0.64	21.225	1.747	0.55013	-0.040463
0.69	21.475	1.7648	0.55763	-0.050106
0.74	21.74	1.7883	0.56562	-0.058978
0.79	21.99	1.8013	0.56795	-0.068563
0.83	22.211	1.8228	0.56487	-0.08581
0.88	22.442	1.83	0.55992	-0.098057
0.93	22.627	1.8295	0.54705	-0.11045
0.98	22.789	1.8515	0.52846	-0.13365
1.03	22.94	1.859	0.50335	-0.15471
1.08	23.03	1.8769	0.46546	-0.18543
1.13	23.171	1.8702	0.42123	-0.20602
1.18	23.221	1.8551	0.37376	-0.22778
1.23	23.292	1.8599	0.32324	-0.25952
1.28	23.297	1.8245	0.2725	-0.27818
1.33	23.294	1.7702	0.22363	-0.29289
1.37	23.267	1.6775	0.17252	-0.29607
1.42	23.24	1.5722	0.13057	-0.28701
1.47	23.203	1.4961	0.085975	-0.28754
1.52	23.157	1.3438	0.049543	-0.2445
1.57	23.052	1.2748	0.013317	-0.24437
1.62	22.989	1.1794	-0.0043363	-0.21281
1.67	22.943	1.1356	-0.012252	-0.20432
1.72	22.863	1.0666	-0.018447	-0.17793
1.77	22.728	1.0407	-0.010695	-0.14983
1.82	22.601	1.0123	-0.0047652	-0.13566
1.87	22.468	1.0202	0.0024357	-0.12403
1.91	22.358	1.0055	0.015014	-0.11201
1.96	22.141	0.9782	0.02663	-0.085826
2.01	21.958	1.0154	0.039924	-0.08557
2.06	21.711	1.0423	0.044425	-0.087875
2.11	21.505	1.0747	0.052881	-0.090818
2.16	21.236	1.0968	0.057976	-0.09561
2.21	20.966	1.0977	0.057376	-0.10539
2.26	20.67	1.0702	0.051071	-0.10558
2.31	20.328	1.047	0.047026	-0.10512
2.36	20	1.0261	0.04518	-0.10842
2.41	19.641	0.99395	0.036999	-0.11086
2.45	19.32	0.92195	0.036461	-0.090137
2.5	18.942	0.86835	0.03907	-0.069428
2.55	18.55	0.83612	0.040292	-0.059969
2.6	18.204	0.80039	0.034492	-0.051278
2.65	17.844	0.77455	0.028959	-0.048592
2.7	17.46	0.76322	0.028934	-0.041745
2.75	17.075	0.74907	0.019091	-0.045266
2.8	16.716	0.7338	0.015639	-0.044118
2.85	16.31	0.71923	0.0099206	-0.044713
2.9	15.981	0.68702	0.017683	-0.034912
2.95	15.579	0.64659	0.018598	-0.026559
2.99	15.239	0.60905	0.016636	-0.024247
3.04	14.832	0.55697	0.017994	-0.011644
3.09	14.422	0.53255	0.021086	-0.0079044
3.14	14.082	0.49869	0.027177	0.0050325
3.19	13.666	0.47537	0.033674	0.013626
3.24	13.307	0.45867	0.039047	0.022239
3.29	12.919	0.43784	0.041803	0.027337
3.34	12.557	0.42974	0.044521	0.032197
3.39	12.187	0.40749	0.048939	0.041322
3.44	11.797	0.39974	0.050708	0.044093
3.49	11.458	0.39177	0.053283	0.049664
3.53	11.095	0.40227	0.056974	0.049285
3.58	10.766	0.40363	0.056655	0.049866
3.63	10.462	0.40032	0.058031	0.053369
3.68	10.137	0.40682	0.05863	0.05173
3.73	9.8282	0.41834	0.059717	0.049261
3.78	9.5228	0.4255	0.059363	0.048931
3.83	9.2627	0.4367	0.060343	0.049943
3.88	8.9865	0.44049	0.060428	0.049613
3.93	8.712	0.44013	0.060941	0.051148
3.98	8.4779	0.44561	0.058015	0.053031
4.02	8.2729	0.45477	0.060294	0.052321
4.07	8.076	0.47368	0.059181	0.049674
4.12	7.8952	0.48209	0.059953	0.047989
4.17	7.6984	0.51439	0.059106	0.041189
4.22	7.5565	0.52388	0.061017	0.040742
4.27	7.4387	0.53444	0.060863	0.035954
4.32	7.3355	0.55638	0.060237	0.033302
4.37	7.2678	0.55242	0.060255	0.032324
4.42	7.234	0.56566	0.059757	0.028221
4.47	7.1727	0.57667	0.059134	0.024178
4.52	7.1501	0.59141	0.061683	0.022548
4.56	7.1453	0.5978	0.062425	0.018898
4.61	7.1824	0.59776	0.06303	0.018963
4.66	7.1646	0.60736	0.064955	0.013599
4.71	7.2243	0.60591	0.064324	0.015025
4.76	7.2614	0.61199	0.064718	0.011709
4.81	7.3646	0.60573	0.066052	0.013169
4.86	7.4194	0.61497	0.06443	0.01084
4.91	7.5049	0.63182	0.066676	0.0074276
4.96	7.6307	0.63555	0.068889	0.0059276
5.01	7.8162	0.6594	0.070648	0.0041924
5.06	7.9808	0.67778	0.073123	0.001608
5.1	8.1647	0.70595	0.077692	-0.001548
5.15	8.352	0.72719	0.082216	-0.0014344
5.2	8.5731	0.74572	0.086957	0.0002389
5.25	8.8137	0.77346	0.092297	-0.0016246
5.3	9.056	0.80136	0.098701	5.1965e-05
5.35	9.3193	0.83103	0.10573	-0.00076485
5.4	9.6084	0.87262	0.11403	-0.0038766
5.45	9.9429	0.90407	0.12316	-0.0032326
5.5	10.261	0.93794	0.13178	-0.0034633
5.55	10.581	0.97456	0.14145	-0.002507
5.6	10.932	1.0116	0.15289	-0.0051957
5.64	11.268	1.0453	0.16492	-0.0017705
5.69	11.59	1.0835	0.17515	-0.0044944
5.74	11.981	1.1115	0.18641	-0.0057209
5.79	12.342	1.1429	0.19903	-0.0052776
5.84	12.714	1.1595	0.2099	-0.0026721
5.89	13.126	1.1879	0.22024	-0.0038031
5.94	13.468	1.2079	0.23292	-0.001869
5.99	13.914	1.2255	0.24465	-0.00058131
6.04	14.288	1.2582	0.25933	-0.0025526
6.09	14.722	1.2863	0.27148	-0.005008
6.14	15.103	1.3274	0.28727	-0.0071876
6.18	15.524	1.3419	0.30509	-0.0035383
6.23	15.953	1.3754	0.3206	-0.0067316
