% Time() Angle(deg) Cn Ct Cm
0	1.473	0.06896	-0.0060763	-0.0069245
0.05	2.3002	0.15731	-0.0044363	-0.01579
0.1	3.1159	0.22795	0.00020012	-0.017751
0.15	3.9668	0.29926	0.0020934	-0.010549
0.2	4.7462	0.37418	0.010762	-0.0069596
0.25	5.5314	0.45081	0.017985	-0.016998
0.29	6.3514	0.48855	0.029788	0.00075897
0.34	7.0885	0.56909	0.04265	-0.0025784
0.39	7.8439	0.63757	0.060633	-0.0048342
0.44	8.5903	0.71893	0.072996	-0.0048196
0.49	9.2603	0.78465	0.091654	-0.0045883
0.54	9.9358	0.84053	0.10739	-0.0023732
0.59	10.601	0.89438	0.12997	-0.00039556
0.64	11.242	0.96671	0.15301	0.006912
0.69	11.804	0.9677	0.16767	0.01079
0.74	12.387	1.0242	0.18102	0.00062327
0.79	12.927	1.0889	0.20513	0.0065772
0.83	13.42	1.1245	0.22679	0.0033539
0.88	13.85	1.1447	0.24218	0.007308
0.93	14.281	1.1877	0.26224	0.016115
0.98	14.704	1.2119	0.27782	0.017933
1.03	15.042	1.2373	0.29371	0.018625
1.08	15.314	1.2579	0.3043	0.013192
1.13	15.578	1.2626	0.31071	0.013007
1.18	15.806	1.2462	0.31727	0.012074
1.23	16.019	1.2644	0.31703	0.0094824
1.28	16.22	1.2727	0.31833	0.0050525
1.33	16.332	1.2617	0.3241	0.0086983
1.37	16.382	1.2519	0.31881	-0.00049256
1.42	16.447	1.2273	0.31025	0.010007
1.47	16.447	1.2126	0.30681	0.0055592
1.52	16.482	1.2002	0.30289	0.0047104
1.57	16.461	1.1929	0.28996	-0.0016731
1.62	16.414	1.1711	0.28406	-0.0053203
1.67	16.259	1.1242	0.27132	0.0065608
1.72	16.046	1.1012	0.25957	0.0030309
1.77	15.803	1.0589	0.2489	0.0055736
1.82	15.58	1.0488	0.24214	0.0047215
1.87	15.217	1.016	0.22535	0.0082033
1.91	14.891	0.96376	0.20927	0.0091207
1.96	14.497	0.91021	0.19462	0.018182
2.01	14.008	0.84677	0.17866	0.025787
2.06	13.572	0.81679	0.17086	0.03021
2.11	13.057	0.77783	0.16024	0.036174
2.16	12.494	0.75188	0.14641	0.031216
2.21	11.949	0.71691	0.14501	0.060801
2.26	11.36	0.66055	0.1271	0.050754
2.31	10.725	0.61636	0.11372	0.05475
2.36	10.07	0.63519	0.11368	0.05937
2.41	9.4413	0.59531	0.097669	0.050979
2.45	8.7363	0.56004	0.089587	0.057295
2.5	7.9949	0.54856	0.078906	0.047167
2.55	7.2252	0.51396	0.066178	0.048984
2.6	6.4947	0.47647	0.058132	0.035622
2.65	5.7103	0.44424	0.04592	0.03112
2.7	4.9558	0.39501	0.03512	0.027285
2.75	4.1201	0.34982	0.027145	0.021948
2.8	3.308	0.29139	0.017153	0.026537
2.85	2.4972	0.2309	0.0078159	0.015644
2.9	1.6556	0.15579	0.0036589	0.019944
2.95	0.82833	0.092308	-3.0879e-05	0.017023
2.99	-0.02787	0.01001	-0.0055907	0.020977
3.04	-0.87411	-0.04274	-0.0097581	0.0078164
3.09	-1.6925	-0.13531	-0.006052	0.020516
3.14	-2.5522	-0.20179	-0.00082888	0.015715
3.19	-3.3999	-0.26988	0.00020787	0.013925
3.24	-4.2241	-0.33142	0.0059589	0.012871
3.29	-5.0135	-0.39637	0.01656	0.004291
3.34	-5.8419	-0.48673	0.027508	0.007729
3.39	-6.6594	-0.56846	0.044614	0.0086731
3.44	-7.4338	-0.6472	0.056482	0.010809
3.49	-8.2243	-0.69505	0.076219	0.0069939
3.53	-8.9638	-0.74055	0.093501	-0.0030537
3.58	-9.6826	-0.81986	0.1075	0.0076562
3.63	-10.417	-0.87205	0.131	-0.00056067
3.68	-11.074	-0.95606	0.14989	0.0062976
3.73	-11.72	-1.0038	0.17253	-0.002458
3.78	-12.38	-1.0464	0.19646	-0.0045961
3.83	-12.955	-1.0738	0.21205	-0.0013781
3.88	-13.502	-1.1331	0.23627	-0.0070116
3.93	-14.025	-1.1562	0.25761	-0.0097296
3.98	-14.535	-1.2017	0.2744	-0.0075621
4.03	-14.993	-1.2184	0.29335	-0.01224
4.07	-15.403	-1.2305	0.30724	-0.014163
4.12	-15.785	-1.2484	0.32289	-0.013525
4.17	-16.106	-1.2829	0.33171	-0.0066894
4.22	-16.436	-1.272	0.34031	-0.010095
4.27	-16.723	-1.2846	0.35014	-0.004827
4.32	-16.92	-1.2762	0.34668	-0.0060872
4.37	-17.111	-1.2856	0.35374	0.0048264
4.42	-17.253	-1.2726	0.35075	0.0048875
4.47	-17.372	-1.306	0.34307	0.028092
4.52	-17.459	-1.2702	0.33403	0.026858
4.57	-17.472	-1.2556	0.32261	0.034571
4.61	-17.518	-1.2214	0.31117	0.032405
4.66	-17.508	-1.2075	0.2971	0.035226
4.71	-17.482	-1.2098	0.28263	0.04639
4.76	-17.507	-1.1634	0.26586	0.046391
4.81	-17.426	-1.1442	0.25731	0.040989
4.86	-17.281	-1.0675	0.23711	0.032101
4.91	-17.001	-1.0402	0.22115	0.024702
4.96	-16.673	-1.0208	0.21073	0.034308
5.01	-16.365	-0.96512	0.19836	0.016254
5.06	-16.068	-0.90541	0.19011	0.0029184
5.11	-15.702	-0.84112	0.18001	-0.011966
5.15	-15.19	-0.80152	0.16749	-0.013082
5.2	-14.686	-0.75298	0.15742	-0.024313
5.25	-14.194	-0.73759	0.14508	-0.027261
5.3	-13.695	-0.70692	0.14172	-0.033693
5.35	-13.145	-0.66872	0.13589	-0.052745
5.4	-12.508	-0.64351	0.12772	-0.052774
5.45	-11.916	-0.61403	0.11017	-0.046515
5.5	-11.278	-0.62865	0.11924	-0.054574
5.55	-10.647	-0.61788	0.10173	-0.046146
5.6	-9.935	-0.56542	0.096884	-0.05856
5.65	-9.2152	-0.56205	0.089305	-0.047626
5.69	-8.5177	-0.53479	0.079918	-0.042
5.74	-7.7614	-0.47822	0.069474	-0.046219
5.79	-6.9764	-0.48482	0.062164	-0.031987
5.84	-6.2108	-0.44187	0.049643	-0.030635
5.89	-5.3829	-0.39981	0.040452	-0.029898
5.94	-4.5844	-0.36828	0.029447	-0.020841
5.99	-3.7702	-0.3109	0.022494	-0.023186
6.04	-2.9197	-0.23922	0.015106	-0.02609
6.09	-2.0619	-0.19029	0.00878	-0.027062
6.14	-1.2228	-0.14363	0.0020609	-0.014288
6.19	-0.36866	-0.064946	-0.0015179	-0.018065
6.23	0.46321	-0.0057439	-0.0045858	-0.015619
