% Time() Angle(deg) Cn Ct Cm
0	10.34	1.0579	0.14638	0.026293
0.05	10.53	1.0793	0.15136	0.023702
0.1	10.76	1.0994	0.1558	0.023926
0.15	10.96	1.1202	0.16245	0.02307
0.2	11.2	1.1414	0.16889	0.021953
0.25	11.39	1.1556	0.17544	0.024953
0.3	11.59	1.1769	0.18254	0.026079
0.35	11.75	1.1842	0.18931	0.030405
0.4	11.96	1.1993	0.19531	0.031003
0.45	12.11	1.213	0.20288	0.032421
0.49	12.26	1.2327	0.20999	0.032018
0.54	12.42	1.2491	0.215	0.032859
0.59	12.6	1.2587	0.22109	0.033225
0.64	12.76	1.2733	0.22706	0.032388
0.69	12.91	1.292	0.23234	0.030291
0.74	13.06	1.3091	0.2389	0.030464
0.79	13.21	1.3253	0.24558	0.030743
0.84	13.36	1.331	0.25077	0.033395
0.89	13.47	1.3391	0.25608	0.034363
0.94	13.56	1.3422	0.26056	0.038359
0.99	13.69	1.3566	0.26565	0.036728
1.04	13.73	1.3608	0.27077	0.0366
1.09	13.83	1.3698	0.27527	0.037144
1.14	13.88	1.37	0.27743	0.040301
1.19	13.9	1.3843	0.28074	0.036864
1.24	13.96	1.3838	0.28441	0.040408
1.29	14.03	1.3967	0.28827	0.036554
1.34	14.06	1.4042	0.29095	0.034678
1.39	14.12	1.4058	0.29394	0.037663
1.43	14.14	1.4153	0.29619	0.033359
1.48	14.16	1.4173	0.29775	0.033918
1.53	14.2	1.4063	0.29948	0.039433
1.58	14.19	1.407	0.29978	0.037248
1.63	14.2	1.4025	0.2992	0.037903
1.68	14.16	1.4064	0.2994	0.036384
1.73	14.12	1.3991	0.30018	0.037621
1.78	14.14	1.3974	0.29927	0.036894
1.83	14.08	1.3927	0.29914	0.03577
1.88	14.02	1.3929	0.29766	0.034491
1.93	13.98	1.3841	0.29667	0.03801
1.98	13.94	1.3856	0.29554	0.03531
2.03	13.87	1.3703	0.2952	0.03826
2.08	13.75	1.362	0.29405	0.039132
2.13	13.67	1.3546	0.29199	0.039184
2.18	13.57	1.338	0.28796	0.04012
2.23	13.46	1.3212	0.28439	0.041315
2.28	13.29	1.3012	0.27907	0.044172
2.33	13.12	1.2725	0.27179	0.048681
2.37	12.98	1.2597	0.26467	0.045405
2.42	12.78	1.2482	0.25711	0.04191
2.47	12.6	1.2224	0.25065	0.044455
2.52	12.4	1.2014	0.24384	0.04685
2.57	12.19	1.1921	0.23856	0.043145
2.62	12	1.1629	0.23195	0.047609
2.67	11.78	1.1435	0.2249	0.048234
2.72	11.58	1.1229	0.21898	0.050058
2.77	11.38	1.0956	0.21145	0.056663
2.82	11.21	1.075	0.20381	0.057287
2.87	10.97	1.0675	0.1971	0.052062
2.92	10.79	1.0492	0.19138	0.055788
2.97	10.59	1.0246	0.18453	0.059893
3.02	10.42	1.01	0.17915	0.058787
3.07	10.2	0.98698	0.17339	0.063228
3.12	9.997	0.97428	0.16773	0.060287
3.17	9.805	0.95748	0.16277	0.062369
3.22	9.614	0.93318	0.15785	0.063785
3.27	9.407	0.91459	0.15233	0.066668
3.31	9.182	0.89716	0.14848	0.067428
3.36	9.003	0.88426	0.1438	0.064557
3.41	8.829	0.87561	0.13828	0.062084
3.46	8.643	0.86045	0.13389	0.060768
3.51	8.424	0.84343	0.12878	0.062489
3.56	8.248	0.82205	0.12325	0.064989
3.61	8.077	0.80963	0.11806	0.063673
3.66	7.923	0.7996	0.11282	0.06239
3.71	7.747	0.78027	0.10815	0.063915
3.76	7.549	0.76743	0.10353	0.062467
3.81	7.387	0.75535	0.1008	0.060735
3.86	7.214	0.7435	0.097359	0.060181
3.91	7.075	0.73741	0.09365	0.059107
3.96	6.952	0.72287	0.090313	0.058776
4.01	6.83	0.72048	0.087056	0.055207
4.06	6.696	0.7177	0.083242	0.053674
4.11	6.612	0.70548	0.081099	0.054013
4.16	6.559	0.70463	0.079056	0.05127
4.21	6.492	0.70288	0.077195	0.048513
4.25	6.435	0.69737	0.074985	0.048948
4.3	6.39	0.68833	0.072562	0.050062
4.35	6.324	0.67875	0.070968	0.0526
4.4	6.312	0.67266	0.070508	0.051654
4.45	6.257	0.66591	0.068827	0.051256
4.5	6.229	0.65928	0.06743	0.05245
4.55	6.16	0.65269	0.066532	0.05206
4.6	6.146	0.64766	0.064971	0.053026
4.65	6.149	0.65621	0.064496	0.047756
4.7	6.113	0.65537	0.064673	0.045498
4.75	6.116	0.65786	0.063236	0.044469
4.8	6.139	0.66082	0.063658	0.042546
4.85	6.162	0.65982	0.063417	0.04135
4.9	6.202	0.66367	0.063229	0.040616
4.95	6.211	0.66677	0.062313	0.039091
5	6.263	0.66973	0.062622	0.039836
5.05	6.265	0.67588	0.061998	0.037374
5.1	6.317	0.6779	0.062173	0.036742
5.15	6.39	0.68316	0.063042	0.034989
5.19	6.474	0.69004	0.064534	0.03413
5.24	6.565	0.70299	0.065537	0.031586
5.29	6.648	0.71598	0.066211	0.032328
5.34	6.78	0.72697	0.067572	0.031735
5.39	6.953	0.74023	0.069794	0.029309
5.44	7.08	0.75485	0.071724	0.028662
5.49	7.214	0.78391	0.074875	0.022468
5.54	7.363	0.79817	0.07699	0.022672
5.59	7.52	0.81032	0.080431	0.023126
5.64	7.741	0.81733	0.083715	0.025866
5.69	7.88	0.83522	0.0868	0.024811
5.74	8.049	0.85239	0.089555	0.024544
5.79	8.232	0.87518	0.092924	0.020581
5.84	8.425	0.88825	0.096325	0.01987
5.89	8.634	0.89694	0.10074	0.02314
5.94	8.826	0.91892	0.10511	0.021021
5.99	9.007	0.94391	0.11038	0.018848
6.04	9.169	0.96468	0.11566	0.01863
6.09	9.381	0.9839	0.12143	0.01703
6.13	9.598	0.99605	0.12592	0.018693
6.18	9.774	1.017	0.13148	0.01764
6.23	9.951	1.0355	0.13631	0.018843
