% Time() Angle(deg) Cn Ct Cm
0	-0.9385	-0.17487	0.0029578	-0.011371
0.05	-0.4789	-0.12442	0.00041865	-0.012148
0.1	0.01002	-0.07467	-0.0015422	-0.012006
0.15	0.5022	-0.027371	-0.0036401	-0.012213
0.2	1.017	0.016644	-0.0042319	-0.01216
0.25	1.478	0.054858	-0.0040543	-0.0091728
0.29	1.96	0.10678	-0.0042634	-0.008303
0.34	2.475	0.15608	-0.0020292	-0.0083708
0.39	2.93	0.20107	0.00034748	-0.0075704
0.44	3.388	0.24965	0.0030085	-0.0075913
0.49	3.835	0.29968	0.0056186	-0.0079729
0.54	4.304	0.3319	0.010273	-0.0037241
0.59	4.697	0.37906	0.015121	-0.0037714
0.64	5.137	0.42271	0.019583	-0.0038445
0.69	5.501	0.44781	0.02579	0.00076883
0.74	5.934	0.5031	0.031447	-0.0023271
0.79	6.295	0.52798	0.037191	0.00080269
0.83	6.682	0.57552	0.044353	0.00025009
0.88	7.011	0.59663	0.052019	0.0017924
0.93	7.329	0.63507	0.058724	0.0010828
0.98	7.622	0.65998	0.066082	0.005355
1.03	7.903	0.68164	0.071704	0.005546
1.08	8.192	0.72278	0.080832	0.0038383
1.13	8.43	0.75063	0.087811	0.004646
1.18	8.687	0.77551	0.094852	0.0067849
1.23	8.891	0.79086	0.10165	0.0083765
1.28	9.044	0.82059	0.10796	0.0072368
1.33	9.245	0.83426	0.11421	0.010532
1.37	9.358	0.85477	0.12051	0.0078768
1.42	9.477	0.86321	0.12545	0.013289
1.47	9.602	0.88243	0.13044	0.012804
1.52	9.622	0.87324	0.1317	0.015105
1.57	9.683	0.87882	0.13456	0.014828
1.62	9.696	0.88984	0.13502	0.01512
1.67	9.71	0.88879	0.13674	0.014848
1.72	9.712	0.88814	0.13618	0.016624
1.77	9.71	0.89268	0.1372	0.015381
1.82	9.692	0.89533	0.13659	0.01501
1.87	9.683	0.90125	0.14087	0.014705
1.91	9.593	0.88659	0.13707	0.017465
1.96	9.517	0.87597	0.13641	0.01876
2.01	9.345	0.86535	0.13286	0.019352
2.06	9.181	0.85992	0.12954	0.019703
2.11	8.943	0.83666	0.12426	0.020291
2.16	8.766	0.82841	0.11942	0.015525
2.21	8.537	0.80101	0.11542	0.018888
2.26	8.304	0.77739	0.10807	0.017823
2.31	7.987	0.74981	0.10072	0.019029
2.36	7.702	0.72595	0.093184	0.017517
2.41	7.352	0.68869	0.086072	0.017174
2.45	7.011	0.66005	0.079903	0.018824
2.5	6.671	0.63515	0.071853	0.01647
2.55	6.277	0.61158	0.066016	0.013541
2.6	5.924	0.56461	0.059875	0.01995
2.65	5.49	0.53727	0.053776	0.01717
2.7	5.129	0.49717	0.04579	0.01768
2.75	4.681	0.45814	0.040102	0.017321
2.8	4.225	0.42857	0.03252	0.013196
2.85	3.781	0.37312	0.026029	0.016489
2.9	3.345	0.34395	0.020687	0.014702
2.95	2.852	0.29173	0.01565	0.015861
2.99	2.426	0.2528	0.0095887	0.013231
3.04	1.942	0.20651	0.0050804	0.011322
3.09	1.465	0.17243	0.0029825	0.0088768
3.14	0.9845	0.12603	-0.00049312	0.010197
3.19	0.5168	0.076291	-0.0024171	0.01139
3.24	0.01328	0.029437	-0.0021204	0.0097776
3.29	-0.4658	-0.01703	-0.0050918	0.0099738
3.34	-0.9319	-0.064858	-0.0040458	0.0073729
3.39	-1.429	-0.10472	-0.0052777	0.0066256
3.44	-1.9	-0.16686	-0.003068	0.011887
3.49	-2.366	-0.19727	-0.00059216	0.0053732
3.53	-2.828	-0.25093	0.0032374	0.005902
3.58	-3.32	-0.30069	0.0051159	0.0066797
3.63	-3.776	-0.33454	0.011369	0.0034953
3.68	-4.243	-0.38927	0.016606	0.0044763
3.73	-4.64	-0.42361	0.02209	0.003048
3.78	-5.1	-0.47231	0.027567	0.0060431
3.83	-5.491	-0.50221	0.036218	0.0015769
3.88	-5.886	-0.53845	0.041062	-0.0013687
3.93	-6.233	-0.5799	0.04773	-0.00010878
3.98	-6.663	-0.6152	0.053971	0.0017011
4.03	-6.969	-0.64269	0.060513	0.0011537
4.07	-7.321	-0.67239	0.069468	-0.0022208
4.12	-7.645	-0.71438	0.077233	0.00023158
4.17	-7.938	-0.73699	0.086977	-0.001415
4.22	-8.229	-0.75388	0.094448	-0.0046203
4.27	-8.452	-0.78706	0.09878	-0.0020502
4.32	-8.688	-0.80867	0.10679	-0.0046516
4.37	-8.888	-0.83524	0.11517	-0.0043832
4.42	-9.064	-0.86685	0.12219	-0.001742
4.47	-9.23	-0.86474	0.12785	-0.0075254
4.52	-9.343	-0.87975	0.1341	-0.0073744
4.57	-9.49	-0.90484	0.13926	-0.0055398
4.61	-9.586	-0.91616	0.14237	-0.0044613
4.66	-9.635	-0.92293	0.14466	-0.0056468
4.71	-9.706	-0.92568	0.15116	-0.0087653
4.76	-9.77	-0.94127	0.15189	-0.0056625
4.81	-9.796	-0.94146	0.15224	-0.0066888
4.86	-9.773	-0.93862	0.15219	-0.0091741
4.91	-9.796	-0.94349	0.15357	-0.0079373
4.96	-9.754	-0.92354	0.15452	-0.014272
5.01	-9.733	-0.92576	0.15376	-0.01312
5.06	-9.691	-0.93064	0.15351	-0.0098528
5.11	-9.596	-0.9275	0.15058	-0.010109
5.15	-9.44	-0.91322	0.14944	-0.012161
5.2	-9.267	-0.90138	0.14567	-0.013088
5.25	-9.09	-0.87015	0.14258	-0.017578
5.3	-8.857	-0.86816	0.13658	-0.01346
5.35	-8.621	-0.84747	0.13051	-0.014142
5.4	-8.413	-0.829	0.12326	-0.011589
5.45	-8.146	-0.80948	0.12061	-0.014812
5.5	-7.782	-0.78215	0.11487	-0.020027
5.55	-7.45	-0.7498	0.10805	-0.020076
5.6	-7.097	-0.73358	0.10103	-0.016465
5.65	-6.749	-0.69571	0.092408	-0.01796
5.69	-6.371	-0.67307	0.08433	-0.016072
5.74	-5.985	-0.6262	0.07478	-0.018952
5.79	-5.605	-0.60077	0.065514	-0.015891
5.84	-5.196	-0.55706	0.058449	-0.016595
5.89	-4.771	-0.52209	0.048111	-0.015135
5.94	-4.301	-0.48214	0.042274	-0.015384
5.99	-3.877	-0.44373	0.035781	-0.013978
6.04	-3.405	-0.40026	0.0285	-0.012964
6.09	-2.928	-0.35447	0.022375	-0.016372
6.14	-2.465	-0.31772	0.018895	-0.011806
6.19	-1.983	-0.26843	0.011236	-0.014719
6.23	-1.512	-0.23164	0.0075448	-0.0087109
