% Time() Angle(deg) Cn Ct Cm
0	8.366	0.82825	0.092029	-0.0072579
0.05	8.617	0.8622	0.097036	-0.012245
0.1	8.859	0.88228	0.099641	-0.011619
0.15	9.126	0.90519	0.10464	-0.011037
0.2	9.392	0.91512	0.11178	-0.0076056
0.25	9.627	0.93176	0.11838	-0.0068646
0.29	9.898	0.9587	0.12504	-0.008709
0.34	10.15	0.98452	0.13335	-0.0072219
0.39	10.41	0.99186	0.1377	-0.0058893
0.44	10.67	1.0226	0.14576	-0.0094413
0.49	10.94	1.0462	0.15137	-0.0071569
0.54	11.18	1.0603	0.15739	-0.0074879
0.59	11.44	1.0726	0.16461	-0.0051772
0.64	11.71	1.1022	0.17272	-0.006868
0.69	11.93	1.1112	0.17918	-0.0062089
0.74	12.14	1.1248	0.1862	-0.0049265
0.79	12.4	1.1651	0.19508	-0.0078192
0.83	12.62	1.1808	0.20417	-0.0054088
0.88	12.85	1.1941	0.21283	-0.0017687
0.93	13.07	1.2296	0.22014	-0.0064547
0.98	13.28	1.2371	0.228	-0.0036779
1.03	13.51	1.2516	0.23642	0.00013766
1.08	13.72	1.2688	0.2451	-0.00022508
1.13	13.9	1.2771	0.256	0.0035317
1.18	14.09	1.3019	0.26352	0.0031479
1.23	14.25	1.322	0.27001	0.0012972
1.28	14.41	1.3236	0.27719	0.0040873
1.33	14.55	1.334	0.28436	0.0063097
1.37	14.71	1.3343	0.29108	0.0080643
1.42	14.8	1.3466	0.29648	0.0098675
1.47	14.92	1.351	0.30356	0.011283
1.52	15	1.355	0.31081	0.014892
1.57	15.08	1.3546	0.31368	0.015877
1.62	15.17	1.3619	0.31494	0.015716
1.67	15.2	1.3543	0.31814	0.018652
1.72	15.23	1.3492	0.31976	0.018349
1.77	15.2	1.3482	0.32175	0.020872
1.82	15.22	1.3478	0.3242	0.022239
1.87	15.23	1.3399	0.32593	0.026365
1.91	15.22	1.3396	0.32376	0.023039
1.96	15.19	1.3404	0.32636	0.022208
2.01	15.19	1.3379	0.3254	0.023297
2.06	15.15	1.3316	0.32327	0.024369
2.11	15.11	1.3337	0.32384	0.021738
2.16	15.08	1.3388	0.32497	0.022462
2.21	15.01	1.3396	0.32319	0.020843
2.26	14.91	1.3191	0.32246	0.027923
2.31	14.85	1.3118	0.32272	0.025634
2.36	14.76	1.3143	0.31912	0.025357
2.41	14.67	1.2884	0.31459	0.027957
2.45	14.57	1.2777	0.31324	0.030994
2.5	14.42	1.2702	0.30807	0.026912
2.55	14.31	1.2492	0.30267	0.03432
2.6	14.16	1.2199	0.29706	0.037493
2.65	14.04	1.1938	0.29261	0.041527
2.7	13.87	1.1959	0.28952	0.04086
2.75	13.72	1.1792	0.28167	0.040511
2.8	13.52	1.1726	0.27804	0.038899
2.85	13.34	1.1504	0.27098	0.039419
2.9	13.13	1.1199	0.2653	0.045684
2.95	12.99	1.116	0.25914	0.040704
2.99	12.76	1.0981	0.25136	0.04185
3.04	12.55	1.0796	0.24351	0.042031
3.09	12.31	1.0597	0.23637	0.042604
3.14	12.1	1.0235	0.22946	0.049672
3.19	11.89	1.0069	0.22262	0.04854
3.24	11.64	0.98643	0.21285	0.047683
3.29	11.39	0.98613	0.20538	0.042242
3.34	11.13	0.9553	0.19699	0.047046
3.39	10.9	0.9349	0.18984	0.048175
3.44	10.64	0.9141	0.18152	0.043771
3.49	10.4	0.89377	0.17463	0.044703
3.53	10.13	0.87994	0.16754	0.043528
3.58	9.884	0.85305	0.15997	0.047975
3.63	9.664	0.83879	0.15377	0.044553
3.68	9.413	0.82571	0.14549	0.040919
3.73	9.16	0.79999	0.14158	0.04482
3.78	8.893	0.794	0.1341	0.042559
3.83	8.654	0.7843	0.12998	0.039987
3.88	8.437	0.76127	0.12472	0.041634
3.93	8.172	0.73869	0.11816	0.040667
3.98	7.951	0.73035	0.11271	0.037367
4.03	7.762	0.72342	0.10641	0.032154
4.07	7.539	0.70072	0.10302	0.03341
4.12	7.319	0.68658	0.097202	0.032484
4.17	7.13	0.68129	0.090746	0.027559
4.22	6.954	0.65812	0.08769	0.028692
4.27	6.747	0.65306	0.081448	0.024246
4.32	6.561	0.63626	0.076647	0.02561
4.37	6.376	0.63069	0.076097	0.024668
4.42	6.201	0.60935	0.071554	0.02535
4.47	6.055	0.61919	0.069606	0.022337
4.52	5.926	0.61104	0.066931	0.019987
4.57	5.82	0.60699	0.064387	0.015887
4.61	5.684	0.5984	0.062209	0.016434
4.66	5.571	0.59638	0.059908	0.015056
4.71	5.486	0.59232	0.058568	0.01241
4.76	5.384	0.58454	0.055691	0.01186
4.81	5.344	0.57096	0.054477	0.012494
4.86	5.287	0.57919	0.053135	0.010261
4.91	5.248	0.57316	0.051764	0.0082219
4.96	5.249	0.57181	0.051537	0.0096957
5.01	5.233	0.57257	0.04942	0.0046772
5.06	5.254	0.57648	0.048868	0.0041493
5.11	5.253	0.58584	0.04807	0.0044011
5.15	5.288	0.58389	0.048277	0.0033351
5.2	5.288	0.56721	0.04791	0.0066561
5.25	5.331	0.55531	0.047838	0.0086566
5.3	5.327	0.5648	0.047265	0.0056735
5.35	5.381	0.5699	0.046623	0.0029994
5.4	5.426	0.5711	0.047582	0.0024377
5.45	5.481	0.588	0.045371	0.00020104
5.5	5.566	0.58012	0.046966	0.004301
5.55	5.66	0.59079	0.046368	0.0042112
5.6	5.802	0.61131	0.048322	-0.0019466
5.65	5.931	0.61303	0.050547	0.00044818
5.69	6.025	0.61668	0.051193	-0.00087223
5.74	6.169	0.64776	0.053917	-0.0055733
5.79	6.305	0.66188	0.055641	-0.0048025
5.84	6.478	0.68845	0.057803	-0.0074483
5.89	6.638	0.67204	0.061469	0.00043981
5.94	6.828	0.72198	0.063919	-0.012155
5.99	6.993	0.73222	0.067899	-0.0082862
6.04	7.174	0.73462	0.069076	-0.0042636
6.09	7.397	0.76306	0.073489	-0.0087651
6.14	7.596	0.76219	0.076676	-0.0062926
6.19	7.817	0.79859	0.079885	-0.012041
6.23	8.043	0.80763	0.08494	-0.0071693
