% Time() Angle(deg) Cn Ct Cm
0	-0.4039	0.12536	-0.00386	-0.043416
0.05	0.7026	0.17751	-0.0040945	-0.036726
0.1	1.783	0.25684	-0.0027925	-0.03635
0.15	2.854	0.34465	0.0010495	-0.034831
0.2	3.95	0.43242	0.0066902	-0.033193
0.25	5.008	0.53588	0.017084	-0.032787
0.29	6.086	0.62892	0.030284	-0.030959
0.34	7.125	0.72885	0.044612	-0.027666
0.39	8.135	0.82018	0.06383	-0.025768
0.44	9.167	0.90004	0.085976	-0.023467
0.49	10.18	0.96985	0.10517	-0.019974
0.54	11.13	1.0325	0.12949	-0.020991
0.59	12.06	1.0694	0.15063	-0.015619
0.64	12.96	1.1131	0.17241	-0.016692
0.69	13.87	1.1602	0.19888	-0.014768
0.74	14.71	1.2231	0.22932	-0.012244
0.79	15.49	1.2906	0.2625	-0.009256
0.83	16.26	1.3613	0.29535	-0.0076481
0.88	16.95	1.4365	0.33203	-0.0037701
0.93	17.67	1.5153	0.36878	-0.0050958
0.98	18.26	1.5929	0.41007	-0.0030425
1.03	18.84	1.6702	0.44719	-0.0037986
1.08	19.37	1.7343	0.48061	-0.0063295
1.13	19.82	1.7652	0.50911	-0.0045177
1.18	20.23	1.7798	0.52566	-0.010471
1.23	20.55	1.7659	0.53547	-0.015218
1.28	20.81	1.741	0.53613	-0.017125
1.33	21.02	1.7014	0.52641	-0.027624
1.37	21.16	1.6834	0.51762	-0.039994
1.42	21.22	1.6854	0.50247	-0.055078
1.47	21.25	1.7001	0.48253	-0.077629
1.52	21.24	1.7312	0.45396	-0.10707
1.57	21.21	1.8113	0.42313	-0.14777
1.62	21.12	1.8698	0.37334	-0.19099
1.67	20.99	1.9154	0.31504	-0.24126
1.72	20.82	1.8981	0.246	-0.27651
1.77	20.61	1.7893	0.15483	-0.28663
1.82	20.35	1.5681	0.072869	-0.25741
1.87	19.99	1.364	0.017025	-0.20632
1.91	19.64	1.2098	-0.017128	-0.1708
1.96	19.22	1.0571	-0.026003	-0.12902
2.01	18.86	0.94724	-0.027146	-0.099967
2.06	18.34	0.90909	-0.020036	-0.089481
2.11	17.85	0.861	-0.0081179	-0.076531
2.16	17.29	0.82246	-0.0034134	-0.064323
2.21	16.71	0.77132	-0.0027985	-0.05325
2.26	16.08	0.72276	-0.0028474	-0.049428
2.31	15.42	0.68012	-0.0047515	-0.046693
2.36	14.69	0.61821	-0.0095232	-0.039259
2.41	13.98	0.5483	-0.013057	-0.029369
2.45	13.2	0.47166	-0.011038	-0.014912
2.5	12.39	0.4163	-0.012172	-0.0088983
2.55	11.55	0.34964	-0.01112	0.0039198
2.6	10.7	0.27425	-0.0063333	0.022157
2.65	9.823	0.23197	-0.002173	0.029516
2.7	8.931	0.16411	0.0042842	0.055074
2.75	7.988	0.10822	0.0072461	0.075551
2.8	7.049	0.086407	0.011476	0.085838
2.85	6.154	0.080946	0.01039	0.077658
2.9	5.188	0.059561	0.0075803	0.074186
2.95	4.196	0.034912	0.004041	0.065083
2.99	3.217	-0.0041396	0.00011793	0.063279
3.04	2.219	-0.069352	-0.0017325	0.065171
3.09	1.169	-0.11526	-0.0036505	0.057182
3.14	0.1045	-0.17618	-0.0054996	0.05367
3.19	-0.9124	-0.2234	-0.0047931	0.042804
3.24	-1.991	-0.30407	-0.002896	0.042373
3.29	-3.055	-0.36928	0.002984	0.033736
3.34	-4.135	-0.4538	0.01011	0.03257
3.39	-5.226	-0.53915	0.018522	0.031323
3.44	-6.3	-0.63177	0.031685	0.031531
3.49	-7.342	-0.73606	0.047657	0.031853
3.53	-8.434	-0.83393	0.068934	0.028746
3.58	-9.446	-0.93508	0.090959	0.030673
3.63	-10.45	-1.0339	0.11868	0.025329
3.68	-11.46	-1.1211	0.14684	0.026938
3.73	-12.39	-1.2036	0.17839	0.027863
3.78	-13.36	-1.2619	0.21102	0.023365
3.83	-14.25	-1.3295	0.24141	0.023642
3.88	-15.13	-1.37	0.27417	0.018827
3.93	-15.98	-1.4088	0.3042	0.015581
3.98	-16.78	-1.4515	0.32838	0.021928
4.03	-17.53	-1.4693	0.35613	0.016475
4.07	-18.22	-1.4943	0.38289	0.017547
4.12	-18.86	-1.5391	0.4106	0.022438
4.17	-19.49	-1.5589	0.43739	0.01939
4.22	-20.03	-1.5999	0.46842	0.023035
4.27	-20.51	-1.6514	0.49215	0.029832
4.32	-20.93	-1.6804	0.52035	0.029407
4.37	-21.31	-1.7376	0.53805	0.047286
4.42	-21.6	-1.7606	0.55136	0.055962
4.47	-21.81	-1.7969	0.55275	0.075548
4.52	-21.95	-1.8267	0.53831	0.10186
4.57	-22.06	-1.8449	0.50783	0.1297
4.61	-22.11	-1.872	0.46125	0.16834
4.66	-22.11	-1.9565	0.40281	0.22141
4.71	-22.06	-2.0185	0.33414	0.2759
4.76	-21.98	-2.0524	0.25233	0.32595
4.81	-21.92	-2.03	0.18541	0.34391
4.86	-21.72	-1.9836	0.060041	0.37776
4.91	-21.5	-1.93	-0.043371	0.41482
4.96	-21.21	-1.8555	-0.094118	0.42565
5.01	-20.92	-1.6511	-0.11081	0.35675
5.06	-20.56	-1.3635	-0.086968	0.24472
5.11	-20.18	-1.2065	-0.060975	0.18129
5.15	-19.72	-1.0996	-0.047573	0.13619
5.2	-19.24	-0.99415	-0.03158	0.092235
5.25	-18.74	-0.97311	-0.029844	0.080632
5.3	-18.21	-0.99063	-0.028625	0.10752
5.35	-17.54	-0.98695	-0.018688	0.11257
5.4	-16.88	-0.91507	-0.02066	0.10784
5.45	-16.17	-0.80808	-0.02142	0.08819
5.5	-15.4	-0.72131	-0.021561	0.074249
5.55	-14.57	-0.62343	-0.022336	0.052668
5.6	-13.69	-0.52686	-0.020309	0.032167
5.65	-12.87	-0.44898	-0.017989	0.014194
5.69	-11.99	-0.40089	-0.013522	0.0059894
5.74	-11.1	-0.34757	-0.0068152	-0.0075548
5.79	-10.22	-0.28521	0.0016782	-0.026107
5.84	-9.294	-0.24933	0.0055347	-0.037752
5.89	-8.434	-0.15831	0.010076	-0.063615
5.94	-7.525	-0.12287	0.012116	-0.078207
5.99	-6.6	-0.11959	0.0088773	-0.067508
6.04	-5.616	-0.099944	0.0073768	-0.063319
6.09	-4.68	-0.049491	0.0061819	-0.061997
6.14	-3.667	-0.006456	0.0046474	-0.063239
6.19	-2.696	0.033936	0.00089962	-0.058065
6.23	-1.649	0.074589	-0.0025054	-0.05425
