% Time() Angle(deg) Cn Ct Cm
0	11.77	1.0831	0.1743	-0.0067702
0.05	12.11	1.1092	0.18225	-0.0011372
0.1	12.49	1.1546	0.19405	-0.0056141
0.15	12.91	1.1567	0.20788	-0.00073565
0.2	13.33	1.1916	0.22557	0.0025434
0.25	13.72	1.2176	0.23292	0.0018873
0.29	14.15	1.267	0.25373	-0.0017345
0.34	14.55	1.2779	0.26508	0.0015437
0.39	14.94	1.3183	0.2782	-0.004123
0.44	15.36	1.3097	0.29315	0.006534
0.49	15.75	1.3583	0.30678	-0.00095462
0.54	16.15	1.3774	0.32717	0.003175
0.59	16.56	1.4101	0.33972	0.00091915
0.64	16.92	1.4328	0.35676	-0.0004722
0.69	17.33	1.4737	0.36924	-0.004493
0.74	17.69	1.4909	0.38417	-0.00073267
0.79	18.07	1.5243	0.40239	-0.0053384
0.83	18.44	1.5944	0.4207	-0.013834
0.88	18.77	1.5839	0.43691	-0.011895
0.93	19.08	1.6314	0.44913	-0.018951
0.98	19.42	1.6222	0.45506	-0.023573
1.03	19.73	1.649	0.45841	-0.035077
1.08	19.99	1.673	0.46336	-0.049479
1.13	20.3	1.6851	0.46223	-0.065008
1.18	20.56	1.6816	0.44815	-0.083736
1.23	20.82	1.7066	0.44	-0.099509
1.28	21.05	1.7235	0.42086	-0.12402
1.33	21.28	1.7627	0.4004	-0.15433
1.37	21.46	1.7928	0.363	-0.1979
1.42	21.65	1.8061	0.31821	-0.22938
1.47	21.82	1.8099	0.26885	-0.25721
1.52	21.95	1.8424	0.20885	-0.27853
1.57	22.09	1.8552	0.13825	-0.29197
1.62	22.18	1.7725	0.073974	-0.27809
1.67	22.27	1.7204	0.010003	-0.27753
1.72	22.36	1.5846	-0.028777	-0.24784
1.77	22.41	1.5101	-0.053417	-0.23673
1.82	22.45	1.4384	-0.061918	-0.21517
1.87	22.52	1.4291	-0.085034	-0.24294
1.91	22.53	1.3028	-0.096793	-0.22201
1.96	22.5	1.255	-0.099634	-0.22254
2.01	22.52	1.1894	-0.093833	-0.20191
2.06	22.54	1.1125	-0.082779	-0.17523
2.11	22.47	1.0677	-0.063739	-0.14426
2.16	22.44	1.057	-0.052512	-0.1256
2.21	22.4	1.0927	-0.045796	-0.1288
2.26	22.34	1.1154	-0.040778	-0.12762
2.31	22.24	1.1515	-0.0448	-0.13823
2.36	22.05	1.1561	-0.051894	-0.14427
2.41	21.92	1.2129	-0.05831	-0.18013
2.45	21.69	1.2245	-0.059476	-0.19509
2.5	21.48	1.1863	-0.061832	-0.19318
2.55	21.26	1.1239	-0.069198	-0.18356
2.6	21.04	1.0645	-0.076387	-0.16943
2.65	20.76	0.96149	-0.084529	-0.14727
2.7	20.52	0.89079	-0.087972	-0.13127
2.75	20.29	0.82066	-0.087523	-0.11389
2.8	20.02	0.72466	-0.081978	-0.088157
2.85	19.72	0.69721	-0.0732	-0.078657
2.9	19.41	0.66323	-0.070454	-0.064435
2.95	19.11	0.65858	-0.061851	-0.064448
2.99	18.73	0.62821	-0.059126	-0.055779
3.04	18.38	0.59049	-0.058055	-0.049101
3.09	18.01	0.56097	-0.059069	-0.043043
3.14	17.64	0.52738	-0.061108	-0.04023
3.19	17.26	0.52067	-0.060074	-0.039353
3.24	16.91	0.50116	-0.060718	-0.038253
3.29	16.56	0.47445	-0.061258	-0.030585
3.34	16.19	0.43751	-0.062142	-0.026654
3.39	15.78	0.40901	-0.060579	-0.01621
3.44	15.46	0.39417	-0.0583	-0.017113
3.49	15.1	0.38458	-0.053389	-0.016752
3.53	14.69	0.3417	-0.04817	-0.0055658
3.58	14.33	0.29875	-0.041129	0.0037363
3.63	13.94	0.26457	-0.031141	0.011681
3.68	13.55	0.22922	-0.025615	0.021514
3.73	13.11	0.18747	-0.01411	0.036799
3.78	12.76	0.15982	-0.0048855	0.05065
3.83	12.37	0.17245	0.0065112	0.057724
3.88	11.99	0.17356	0.013359	0.064527
3.93	11.6	0.21095	0.020464	0.070909
3.98	11.3	0.22704	0.026032	0.064608
4.03	10.96	0.24845	0.035366	0.066816
4.07	10.6	0.29566	0.038506	0.060242
4.12	10.32	0.32339	0.040277	0.054679
4.17	9.999	0.37416	0.044144	0.047135
4.22	9.691	0.40371	0.045331	0.044213
4.27	9.371	0.40382	0.04646	0.047806
4.32	9.096	0.42488	0.050584	0.051873
4.37	8.801	0.42852	0.050589	0.05221
4.42	8.519	0.45406	0.05111	0.045896
4.47	8.264	0.47927	0.050796	0.038754
4.52	8.054	0.48321	0.04966	0.033004
4.57	7.845	0.50564	0.053326	0.029119
4.61	7.66	0.49682	0.050348	0.026563
4.66	7.51	0.52733	0.0537	0.023049
4.71	7.374	0.5285	0.054816	0.023854
4.76	7.263	0.55278	0.055887	0.015944
4.81	7.145	0.56466	0.056351	0.013043
4.86	7.032	0.57307	0.055202	0.01601
4.91	6.947	0.56499	0.054825	0.013305
4.96	6.902	0.56522	0.053838	0.014026
5.01	6.871	0.56396	0.054923	0.012994
5.06	6.837	0.56984	0.055359	0.015266
5.1	6.829	0.57687	0.052995	0.012571
5.15	6.808	0.58336	0.053888	0.015238
5.2	6.859	0.59363	0.058765	0.013845
5.25	6.81	0.59521	0.057846	0.010652
5.3	6.854	0.60888	0.059521	0.0045528
5.35	6.894	0.64264	0.060039	0.0027469
5.4	6.928	0.63494	0.062633	0.0060006
5.45	7.03	0.64456	0.063021	0.0039764
5.5	7.179	0.63441	0.06315	0.0077172
5.55	7.328	0.66579	0.068212	0.0042333
5.6	7.512	0.71398	0.073197	-0.0023543
5.64	7.699	0.72939	0.075343	-0.0011023
5.69	7.946	0.74114	0.077894	0.0020721
5.74	8.175	0.76127	0.085645	0.0019136
5.79	8.429	0.78915	0.088059	-0.0035386
5.84	8.719	0.81443	0.095504	-0.0036993
5.89	8.959	0.8532	0.10099	-0.0076514
5.94	9.255	0.86315	0.10664	-0.0049125
5.99	9.549	0.89646	0.11515	-0.0079771
6.04	9.897	0.91288	0.12023	-0.0002471
6.09	10.23	0.9585	0.13548	-0.0065051
6.14	10.6	0.98661	0.14468	-0.00074425
6.18	10.94	1.0085	0.15418	0.00096545
6.23	11.33	1.0457	0.16087	-0.0039327
