% Time() Angle(deg) Cn Ct Cm
0	8.266	0.82551	0.09528	-0.0029183
0.05	8.419	0.84509	0.098041	-0.0050936
0.1	8.559	0.8588	0.10175	-0.0030128
0.15	8.767	0.86746	0.10548	-0.0044433
0.2	8.883	0.8702	0.10736	-0.0027795
0.25	9.057	0.88393	0.1116	-9.5065e-05
0.29	9.241	0.91969	0.11633	-0.0072399
0.34	9.385	0.91877	0.11991	-0.0010999
0.39	9.593	0.93349	0.12392	-0.0048011
0.44	9.762	0.95048	0.12783	-0.0025518
0.49	9.951	0.9611	0.13347	-0.00099625
0.54	10.14	0.97468	0.13839	0.00089714
0.59	10.3	0.98964	0.14285	0.00056578
0.64	10.5	1.0064	0.14805	0.00012025
0.69	10.66	1.0087	0.15242	0.0019624
0.74	10.83	1.0305	0.15647	-0.00011843
0.79	10.97	1.0516	0.1607	-0.0026385
0.83	11.13	1.0492	0.16795	0.0013689
0.88	11.31	1.0591	0.16997	0.0034546
0.93	11.48	1.0753	0.17499	0.0012875
0.98	11.61	1.089	0.18044	0.0025344
1.03	11.78	1.1067	0.18562	0.0019008
1.08	11.93	1.1121	0.19152	0.0037712
1.13	12.07	1.1322	0.19586	0.0018657
1.18	12.22	1.1342	0.20178	0.006698
1.23	12.34	1.1457	0.20496	0.0055189
1.28	12.47	1.1612	0.21095	0.0055044
1.33	12.6	1.1678	0.21828	0.0091704
1.37	12.71	1.1777	0.22188	0.0092213
1.42	12.83	1.1946	0.22698	0.0069963
1.47	12.97	1.1971	0.23164	0.0094466
1.52	13.03	1.196	0.23676	0.013033
1.57	13.12	1.2065	0.24056	0.011194
1.62	13.23	1.2185	0.24503	0.011502
1.67	13.31	1.222	0.24831	0.014379
1.72	13.38	1.2213	0.25057	0.012737
1.77	13.44	1.226	0.253	0.015204
1.82	13.46	1.2069	0.25396	0.020967
1.87	13.48	1.2102	0.25671	0.019518
1.91	13.5	1.2169	0.2564	0.018061
1.96	13.5	1.1962	0.25921	0.02518
2.01	13.55	1.2156	0.26068	0.022176
2.06	13.54	1.2029	0.26155	0.028351
2.11	13.54	1.2113	0.26085	0.022456
2.16	13.51	1.2156	0.25989	0.020529
2.21	13.49	1.2269	0.26189	0.019318
2.26	13.52	1.2239	0.26315	0.019807
2.31	13.47	1.2293	0.26389	0.018765
2.36	13.44	1.2264	0.26299	0.018969
2.41	13.41	1.2367	0.26491	0.019551
2.45	13.37	1.2227	0.2662	0.025017
2.5	13.34	1.2261	0.26644	0.022904
2.55	13.31	1.2121	0.26438	0.022625
2.6	13.26	1.1968	0.26422	0.026657
2.65	13.19	1.1998	0.26162	0.026608
2.7	13.12	1.199	0.25948	0.022724
2.75	12.98	1.1714	0.25671	0.029718
2.8	12.92	1.1575	0.25485	0.030932
2.85	12.84	1.1544	0.2523	0.028903
2.9	12.74	1.1288	0.24761	0.035086
2.95	12.64	1.1284	0.24294	0.032421
2.99	12.54	1.1201	0.24013	0.034107
3.04	12.41	1.1145	0.23515	0.03043
3.09	12.3	1.1082	0.23156	0.028935
3.14	12.16	1.0802	0.22743	0.033916
3.19	12.03	1.0747	0.22359	0.03114
3.24	11.87	1.0684	0.21785	0.028888
3.29	11.7	1.0417	0.21477	0.035795
3.34	11.52	1.0239	0.20778	0.033723
3.39	11.4	1.0163	0.20175	0.032228
3.44	11.21	1.0119	0.19707	0.031143
3.49	11.06	1.0011	0.19334	0.031754
3.53	10.9	0.97356	0.18755	0.035591
3.58	10.71	0.95796	0.18275	0.035114
3.63	10.59	0.95975	0.17866	0.030936
3.68	10.38	0.93811	0.17405	0.032081
3.73	10.18	0.92348	0.16766	0.030741
3.78	10.05	0.91947	0.16229	0.029603
3.83	9.874	0.90888	0.15867	0.027837
3.88	9.692	0.88912	0.15532	0.031142
3.93	9.564	0.8914	0.1514	0.026661
3.98	9.414	0.8797	0.14437	0.026689
4.03	9.252	0.85121	0.1403	0.030212
4.07	9.094	0.85516	0.13786	0.025371
4.12	8.959	0.84253	0.13572	0.030057
4.17	8.783	0.83611	0.13058	0.025389
4.22	8.645	0.8143	0.12704	0.027599
4.27	8.479	0.80733	0.12181	0.027494
4.32	8.345	0.80631	0.12045	0.022363
4.37	8.2	0.78617	0.11621	0.026133
4.42	8.075	0.78298	0.11183	0.024486
4.47	7.961	0.7684	0.10763	0.024908
4.52	7.83	0.75795	0.1066	0.024619
4.57	7.723	0.75889	0.10269	0.022217
4.61	7.615	0.74685	0.1007	0.020477
4.66	7.488	0.74325	0.09758	0.018885
4.71	7.421	0.73735	0.094676	0.016563
4.76	7.292	0.73978	0.092787	0.014104
4.81	7.209	0.72325	0.090429	0.016452
4.86	7.143	0.72651	0.08874	0.014569
4.91	7.036	0.71988	0.085845	0.015212
4.96	7.022	0.71082	0.085558	0.013515
5.01	6.964	0.70602	0.08309	0.014412
5.06	6.952	0.71741	0.082176	0.011407
5.11	6.941	0.71244	0.081727	0.010216
5.15	6.938	0.70999	0.082833	0.010103
5.2	6.878	0.72007	0.079777	0.0067358
5.25	6.926	0.71772	0.080603	0.0085757
5.3	6.88	0.72333	0.080532	0.0046083
5.35	6.899	0.7159	0.07985	0.0081363
5.4	6.944	0.71526	0.079541	0.0076416
5.45	6.931	0.70251	0.080162	0.010204
5.5	6.939	0.69922	0.079988	0.011934
5.55	6.99	0.71224	0.078147	0.0052865
5.6	7.015	0.70471	0.079125	0.0075595
5.65	7.033	0.70882	0.077926	0.0081198
5.69	7.064	0.71048	0.078245	0.0075083
5.74	7.09	0.71715	0.077773	0.0074345
5.79	7.15	0.72978	0.078838	0.0015583
5.84	7.227	0.72758	0.08035	0.0049471
5.89	7.315	0.73091	0.08099	0.0035208
5.94	7.413	0.74571	0.083134	0.0027469
5.99	7.497	0.77526	0.084317	-0.0012793
6.04	7.612	0.7737	0.086048	-0.0006263
6.09	7.73	0.76376	0.088468	0.0050166
6.14	7.845	0.81572	0.091301	-0.0094806
6.19	7.94	0.81658	0.093279	-0.0036424
6.23	8.066	0.82312	0.096053	-0.0017791
