% Time() Angle(deg) Cn Ct Cm
0	1.915	0.12822	-0.003463	-0.012781
0.05	2.24	0.15887	-0.0030229	-0.011007
0.1	2.56	0.19405	-0.0013522	-0.014451
0.15	2.92	0.23371	-0.00085452	-0.016716
0.2	3.221	0.25528	0.00027932	-0.013152
0.25	3.527	0.29146	0.0038505	-0.012496
0.29	3.928	0.32444	0.0063131	-0.011031
0.34	4.294	0.35426	0.0096625	-0.011314
0.39	4.653	0.38292	0.013133	-0.010349
0.44	5.017	0.41771	0.017897	-0.0063451
0.49	5.352	0.45586	0.022086	-0.0074285
0.54	5.711	0.47755	0.027264	-0.0034384
0.59	6.039	0.51874	0.033347	-0.0062792
0.64	6.403	0.55036	0.036619	-0.0051638
0.69	6.745	0.58208	0.04453	-0.0059843
0.74	7.108	0.60651	0.049176	-0.0013372
0.79	7.46	0.6603	0.054723	-0.0083246
0.83	7.77	0.68444	0.062608	-0.0023312
0.88	8.112	0.7179	0.071236	-0.0016797
0.93	8.476	0.75465	0.078516	-0.0043955
0.98	8.84	0.79169	0.085638	-0.0035774
1.03	9.169	0.81218	0.094963	-0.0020294
1.08	9.524	0.85214	0.1052	-0.0020765
1.13	9.881	0.89176	0.11478	-0.0057262
1.18	10.19	0.92014	0.1249	-0.0042218
1.23	10.59	0.94465	0.1348	-0.0015177
1.28	10.87	0.97384	0.1452	0.0021556
1.33	11.19	0.99682	0.15338	0.0034708
1.37	11.48	1.0313	0.16136	-0.00094986
1.42	11.82	1.0563	0.17371	-0.00012246
1.47	12.11	1.0908	0.18364	-0.001297
1.52	12.38	1.1167	0.19477	0.0015879
1.57	12.69	1.1326	0.20478	0.0038007
1.62	12.94	1.1671	0.21718	0.0036499
1.67	13.2	1.1814	0.22722	0.0055359
1.72	13.45	1.213	0.23896	0.0065599
1.77	13.69	1.2364	0.25046	0.010357
1.82	13.9	1.2541	0.26199	0.011424
1.87	14.15	1.2628	0.27296	0.01261
1.91	14.32	1.2939	0.28039	0.009361
1.96	14.5	1.3013	0.28959	0.01092
2.01	14.71	1.3021	0.29694	0.016516
2.06	14.88	1.3205	0.3044	0.014922
2.11	15.02	1.3424	0.31127	0.012032
2.16	15.16	1.3292	0.31516	0.01834
2.21	15.31	1.3424	0.32225	0.015594
2.26	15.38	1.3407	0.32729	0.017546
2.31	15.47	1.3573	0.33122	0.014953
2.36	15.6	1.3527	0.3327	0.015919
2.41	15.62	1.3556	0.33764	0.018871
2.45	15.67	1.3497	0.33916	0.017803
2.5	15.73	1.3555	0.34214	0.019965
2.55	15.75	1.3583	0.34303	0.018118
2.6	15.78	1.3636	0.34608	0.019696
2.65	15.8	1.3496	0.34362	0.020831
2.7	15.81	1.3378	0.34202	0.019714
2.75	15.78	1.3451	0.34338	0.021115
2.8	15.8	1.355	0.34092	0.018178
2.85	15.78	1.3472	0.3396	0.013075
2.9	15.8	1.332	0.33879	0.016992
2.94	15.67	1.3326	0.33936	0.020169
2.99	15.66	1.3223	0.3372	0.018208
3.04	15.6	1.2968	0.33127	0.023242
3.09	15.48	1.2851	0.32553	0.024402
3.14	15.4	1.2856	0.31895	0.017126
3.19	15.27	1.2493	0.31238	0.023587
3.24	15.15	1.2481	0.30581	0.020906
3.29	14.98	1.2295	0.29924	0.021132
3.34	14.85	1.2027	0.29333	0.023205
3.39	14.64	1.1972	0.28736	0.019636
3.44	14.45	1.1654	0.28083	0.027
3.48	14.25	1.1499	0.27447	0.028199
3.53	14.05	1.1319	0.26533	0.026598
3.58	13.81	1.1117	0.2573	0.029676
3.63	13.56	1.0949	0.24836	0.029441
3.68	13.37	1.056	0.23934	0.036018
3.73	13.1	1.0398	0.23097	0.033365
3.78	12.85	1.0173	0.22147	0.033857
3.83	12.61	0.99167	0.2166	0.039252
3.88	12.3	0.97092	0.20808	0.038537
3.93	12.03	0.95546	0.19967	0.037145
3.98	11.72	0.92364	0.18894	0.04099
4.02	11.43	0.89498	0.18129	0.042626
4.07	11.08	0.87792	0.17051	0.039996
4.12	10.83	0.85629	0.16138	0.040594
4.17	10.46	0.82373	0.15174	0.042665
4.22	10.11	0.80966	0.14657	0.043334
4.27	9.776	0.79787	0.13935	0.041475
4.32	9.487	0.78659	0.13494	0.038803
4.37	9.117	0.77439	0.12808	0.039555
4.42	8.764	0.73362	0.1193	0.0422
4.47	8.464	0.71686	0.11098	0.039169
4.52	8.08	0.69494	0.10435	0.039028
4.56	7.762	0.68002	0.096776	0.033327
4.61	7.483	0.65184	0.0893	0.032576
4.66	7.1	0.62718	0.082261	0.032964
4.71	6.679	0.60634	0.076236	0.029034
4.76	6.4	0.58842	0.069028	0.026337
4.81	5.989	0.55472	0.064399	0.027706
4.86	5.674	0.53146	0.056383	0.025452
4.91	5.32	0.49888	0.050759	0.025295
4.96	4.942	0.47118	0.044047	0.022045
5.01	4.597	0.43915	0.038867	0.022417
5.06	4.21	0.41886	0.033983	0.018838
5.1	3.873	0.39517	0.028845	0.017443
5.15	3.517	0.35284	0.024602	0.020991
5.2	3.197	0.32426	0.021049	0.016634
5.25	2.855	0.30287	0.016665	0.013989
5.3	2.497	0.26683	0.012653	0.016436
5.35	2.156	0.23442	0.008739	0.015369
5.4	1.829	0.21397	0.0049492	0.01301
5.45	1.517	0.18037	0.0032447	0.015601
5.5	1.211	0.14363	0.0013952	0.01765
5.55	0.8786	0.12334	-0.00060611	0.013422
5.6	0.6339	0.095325	-0.00048686	0.011619
5.64	0.3048	0.066684	-0.0026111	0.013166
5.69	0.01344	0.039784	-0.0035066	0.0097188
5.74	-0.2204	0.018077	-0.0041356	0.0071871
5.79	-0.466	-0.019124	-0.0049206	0.01102
5.84	-0.7585	-0.040174	-0.0063023	0.0078463
5.89	-0.9617	-0.066129	-0.0040016	0.0063035
5.94	-1.184	-0.098613	-0.0046598	0.0082219
5.99	-1.433	-0.11613	-0.0033986	0.0061892
6.04	-1.638	-0.13341	-0.0015681	0.0024033
6.09	-1.826	-0.15534	-0.0011135	0.0034789
6.14	-2.004	-0.17249	-0.00033574	0.0025559
6.18	-2.167	-0.18551	0.00046834	-0.0005953
6.23	-2.305	-0.21428	0.0021822	0.0025624
