% Time() Angle(deg) Cn Ct Cm
0	19.36	0.93607	0.13337	-0.060953
0.05	19.9	0.92674	0.13642	-0.050988
0.1	20.34	0.9154	0.1358	-0.052443
0.15	20.85	0.90171	0.13673	-0.046217
0.2	21.33	0.88782	0.12441	-0.054435
0.25	21.79	0.89775	0.12153	-0.059823
0.29	22.28	0.87473	0.10969	-0.051454
0.34	22.75	0.90142	0.096152	-0.069414
0.39	23.2	0.97923	0.055429	-0.090961
0.44	23.65	0.92721	-0.0019638	-0.11016
0.49	24.11	0.93972	-0.023386	-0.09912
0.54	24.57	0.94096	-0.050701	-0.11542
0.59	25	0.89432	-0.063037	-0.10371
0.64	25.39	0.88639	-0.066465	-0.1015
0.69	25.81	0.89847	-0.069528	-0.10764
0.74	26.2	0.90129	-0.064557	-0.10324
0.79	26.56	0.92514	-0.061491	-0.10584
0.83	26.9	0.93762	-0.066215	-0.11118
0.88	27.23	0.94809	-0.060123	-0.11074
0.93	27.57	0.96973	-0.063414	-0.11686
0.98	27.82	0.98403	-0.063268	-0.12056
1.03	28.1	1.0019	-0.060649	-0.12025
1.08	28.36	1.0065	-0.06407	-0.12421
1.13	28.6	1.036	-0.057279	-0.12736
1.18	28.81	1.0695	-0.056786	-0.13392
1.23	29	1.0727	-0.05467	-0.13483
1.28	29.17	1.0457	-0.060915	-0.1309
1.33	29.31	1.0744	-0.066468	-0.13988
1.37	29.42	1.1232	-0.064285	-0.14855
1.42	29.58	1.1471	-0.055091	-0.15089
1.47	29.67	1.1342	-0.052697	-0.14565
1.52	29.74	1.1283	-0.059646	-0.14492
1.57	29.8	1.1345	-0.06297	-0.15249
1.62	29.81	1.184	-0.053717	-0.15801
1.67	29.83	1.2312	-0.050497	-0.16879
1.72	29.82	1.1811	-0.056148	-0.15984
1.77	29.79	1.1526	-0.057989	-0.15352
1.82	29.74	1.1867	-0.057086	-0.16163
1.87	29.64	1.1936	-0.052244	-0.16147
1.91	29.52	1.1876	-0.056379	-0.16077
1.96	29.36	1.1434	-0.059871	-0.14874
2.01	29.17	1.157	-0.059982	-0.1528
2.06	28.97	1.1385	-0.060386	-0.15608
2.11	28.78	1.1496	-0.058262	-0.1549
2.16	28.52	1.1304	-0.057231	-0.14837
2.21	28.26	1.0966	-0.059603	-0.13753
2.26	28.01	1.0676	-0.058919	-0.13618
2.31	27.69	1.0281	-0.064683	-0.13071
2.36	27.37	1.0536	-0.062313	-0.13197
2.41	27.03	1.0075	-0.057706	-0.12346
2.45	26.7	0.98676	-0.063135	-0.12136
2.5	26.31	0.92048	-0.066511	-0.10775
2.55	25.94	0.92328	-0.064739	-0.1131
2.6	25.54	0.9155	-0.065122	-0.11175
2.65	25.16	0.87269	-0.061486	-0.097805
2.7	24.74	0.87507	-0.067121	-0.10045
2.75	24.28	0.83139	-0.064183	-0.090713
2.8	23.81	0.82108	-0.068219	-0.092683
2.85	23.4	0.79883	-0.065197	-0.090761
2.9	22.95	0.78234	-0.064619	-0.083535
2.95	22.47	0.74885	-0.065189	-0.081751
2.99	21.98	0.73506	-0.065499	-0.075609
3.04	21.51	0.70344	-0.062473	-0.070848
3.09	21.01	0.69504	-0.067821	-0.073075
3.14	20.53	0.66302	-0.063572	-0.066755
3.19	20.06	0.61173	-0.067808	-0.054699
3.24	19.52	0.59871	-0.061415	-0.052313
3.29	19.06	0.57913	-0.058148	-0.047627
3.34	18.56	0.6437	-0.053199	-0.064851
3.39	18.1	0.64834	-0.039413	-0.054141
3.44	17.58	0.65667	-0.02702	-0.050387
3.49	17.07	0.67723	-0.034055	-0.065394
3.53	16.58	0.6839	-0.012737	-0.054365
3.58	16.14	0.75888	0.0022849	-0.063083
3.63	15.69	0.82314	0.048124	-0.044391
3.68	15.26	0.90905	0.053844	-0.062552
3.73	14.83	0.90666	0.047944	-0.077561
3.78	14.4	0.81856	0.040696	-0.066825
3.83	13.99	0.86295	0.069551	-0.056343
3.88	13.6	0.86298	0.089378	-0.033454
3.93	13.23	0.87093	0.12465	-0.0036182
3.98	12.88	0.90536	0.1538	0.011174
4.03	12.53	0.96574	0.17916	0.022459
4.07	12.23	1.0385	0.1894	0.013345
4.12	11.91	1.0086	0.18596	0.020397
4.17	11.6	1.0155	0.18513	0.019593
4.22	11.39	0.99749	0.18078	0.019192
4.27	11.1	0.99574	0.17868	0.021183
4.32	10.89	0.9746	0.16741	0.019349
4.37	10.7	0.97788	0.16643	0.015565
4.42	10.51	0.96903	0.1632	0.016588
4.47	10.36	0.96218	0.15935	0.014776
4.52	10.23	0.9628	0.15685	0.014432
4.57	10.15	0.94024	0.1562	0.015388
4.61	10.06	0.94447	0.15265	0.012626
4.66	9.971	0.93942	0.151	0.014997
4.71	9.922	0.93829	0.15173	0.017037
4.76	9.949	0.94577	0.15402	0.015298
4.81	9.909	0.9399	0.15267	0.015533
4.86	9.928	0.95149	0.15631	0.014686
4.91	9.93	0.95064	0.15307	0.012993
4.96	9.953	0.94552	0.15222	0.013171
5.01	10.02	0.94171	0.1524	0.015287
5.06	10.13	0.94818	0.15635	0.016463
5.11	10.27	0.96463	0.16328	0.015262
5.15	10.46	0.97691	0.16847	0.016738
5.2	10.65	1.0033	0.17463	0.013325
5.25	10.9	1.0265	0.18448	0.013275
5.3	11.12	1.041	0.1925	0.017401
5.35	11.43	1.0533	0.2004	0.018313
5.4	11.69	1.0779	0.20766	0.017089
5.45	11.99	1.1041	0.2163	0.018374
5.5	12.33	1.1197	0.22645	0.021132
5.55	12.67	1.1415	0.23491	0.021347
5.6	13.04	1.1715	0.24896	0.01973
5.65	13.4	1.194	0.26089	0.02218
5.69	13.77	1.211	0.27364	0.024832
5.74	14.24	1.2323	0.28461	0.024625
5.79	14.64	1.2604	0.29672	0.022611
5.84	15.04	1.27	0.30684	0.023032
5.89	15.48	1.2875	0.31568	0.017932
5.94	15.94	1.2804	0.321	0.015104
5.99	16.39	1.2748	0.3178	0.005021
6.04	16.87	1.2975	0.28341	-0.04031
6.09	17.33	1.2895	0.20634	-0.10481
6.14	17.78	1.1655	0.1483	-0.11344
6.19	18.32	1.0589	0.17059	-0.062684
6.23	18.82	0.9651	0.14597	-0.060109
