% Time() Angle(deg) Cn Ct Cm
0	-0.9629	-0.17555	0.0034222	-0.014568
0.05	-0.5343	-0.12511	-0.00026074	-0.014064
0.1	-0.03398	-0.086864	-0.0020087	-0.010573
0.15	0.4549	-0.039498	-0.0032018	-0.015068
0.2	0.89	0.012852	-0.0057159	-0.014703
0.25	1.341	0.049708	-0.0060267	-0.013617
0.29	1.823	0.092677	-0.0050021	-0.0084201
0.34	2.297	0.1518	-0.0035672	-0.012603
0.39	2.771	0.18478	-0.001209	-0.0064516
0.44	3.243	0.23651	0.00075534	-0.0078968
0.49	3.713	0.28482	0.0041072	-0.0085463
0.54	4.184	0.32153	0.0079868	-0.0057257
0.59	4.646	0.36834	0.013218	-0.0048791
0.64	5.047	0.40357	0.01804	-0.0058786
0.69	5.436	0.45337	0.02412	-0.0036385
0.74	5.853	0.49268	0.029991	-0.0031326
0.79	6.259	0.52775	0.035163	-0.00089461
0.83	6.614	0.55519	0.042326	0.0026081
0.88	6.951	0.59111	0.048899	0.0022658
0.93	7.311	0.63293	0.058029	0.0013771
0.98	7.625	0.66559	0.065315	0.0015198
1.03	7.922	0.69712	0.072879	0.0038904
1.08	8.222	0.73851	0.082181	0.0002398
1.13	8.501	0.75189	0.08862	0.0062513
1.18	8.764	0.77685	0.096152	0.0031108
1.23	8.981	0.80391	0.1018	0.00661
1.28	9.187	0.81711	0.10834	0.0078438
1.33	9.352	0.82682	0.11443	0.012064
1.37	9.537	0.86421	0.12213	0.0065615
1.42	9.651	0.85658	0.12693	0.013398
1.47	9.713	0.88262	0.12968	0.0098133
1.52	9.803	0.88943	0.13553	0.012642
1.57	9.89	0.89681	0.13837	0.012636
1.62	9.919	0.90121	0.1426	0.014877
1.67	9.941	0.9125	0.14206	0.012609
1.72	9.921	0.89931	0.14421	0.019311
1.77	9.938	0.90717	0.14317	0.014993
1.82	9.909	0.92232	0.14517	0.012541
1.87	9.946	0.91617	0.14545	0.014056
1.91	9.834	0.90916	0.14738	0.018805
1.96	9.765	0.90078	0.14722	0.019664
2.01	9.667	0.89317	0.14297	0.020073
2.06	9.561	0.88486	0.14257	0.01955
2.11	9.405	0.85836	0.13763	0.024625
2.16	9.204	0.8407	0.13482	0.026567
2.21	8.959	0.83479	0.13014	0.024207
2.26	8.722	0.82928	0.12687	0.021437
2.31	8.45	0.80554	0.11983	0.022641
2.36	8.175	0.77973	0.114	0.022533
2.41	7.887	0.74982	0.10798	0.022312
2.45	7.591	0.73168	0.101	0.021226
2.5	7.268	0.69778	0.09267	0.023346
2.55	6.939	0.66889	0.087104	0.024627
2.6	6.582	0.63425	0.079845	0.025635
2.65	6.182	0.60663	0.071699	0.023195
2.7	5.793	0.58167	0.065607	0.021067
2.75	5.4	0.53678	0.057678	0.024664
2.8	4.977	0.4965	0.049041	0.02197
2.85	4.529	0.46467	0.042574	0.018095
2.9	4.062	0.4171	0.035114	0.023581
2.95	3.656	0.38755	0.029288	0.019369
2.99	3.204	0.34929	0.023183	0.018162
3.04	2.735	0.30161	0.016533	0.020808
3.09	2.255	0.25712	0.011962	0.021681
3.14	1.809	0.21144	0.0086382	0.017959
3.19	1.32	0.16995	0.0043841	0.017313
3.24	0.8688	0.13062	0.00080407	0.014848
3.29	0.3734	0.082873	-0.0019081	0.015944
3.34	-0.08613	0.030794	-0.0033741	0.018006
3.39	-0.5147	-0.0053258	-0.0051473	0.012874
3.44	-1.031	-0.058375	-0.0072204	0.014048
3.49	-1.497	-0.091176	-0.0051004	0.010225
3.53	-1.986	-0.15106	-0.0039979	0.015404
3.58	-2.42	-0.19173	-0.0035827	0.012515
3.63	-2.874	-0.23291	0.00047274	0.008968
3.68	-3.397	-0.28979	0.0019103	0.012368
3.73	-3.847	-0.32545	0.0066244	0.0099373
3.78	-4.275	-0.36883	0.01039	0.0082643
3.83	-4.684	-0.40753	0.014968	0.0084622
3.88	-5.119	-0.4414	0.020813	0.0055588
3.93	-5.494	-0.48291	0.026508	0.0054427
3.98	-5.861	-0.52274	0.032505	0.0039298
4.03	-6.194	-0.55604	0.03944	0.0049393
4.07	-6.572	-0.59585	0.045789	0.0054392
4.12	-6.892	-0.61958	0.052629	0.0028791
4.17	-7.208	-0.65577	0.059213	0.0049613
4.22	-7.502	-0.67186	0.066648	-0.00045203
4.27	-7.735	-0.70069	0.073308	0.00098859
4.32	-8.046	-0.73207	0.081838	-0.0012827
4.37	-8.259	-0.74568	0.088892	-0.0048958
4.42	-8.452	-0.77247	0.095667	-0.0037363
4.47	-8.612	-0.79599	0.1014	-0.002697
4.52	-8.772	-0.81115	0.1064	-0.003758
4.57	-8.906	-0.82655	0.11074	-0.0053429
4.61	-9.036	-0.83155	0.11608	-0.0058999
4.66	-9.107	-0.84086	0.1201	-0.0064492
4.71	-9.173	-0.85206	0.12292	-0.0080975
4.76	-9.203	-0.85421	0.12523	-0.0084385
4.81	-9.235	-0.86146	0.12615	-0.0085735
4.86	-9.256	-0.85331	0.12701	-0.0087748
4.91	-9.225	-0.86294	0.13031	-0.010087
4.96	-9.212	-0.87755	0.13232	-0.009465
5.01	-9.212	-0.86451	0.13249	-0.012103
5.06	-9.182	-0.87688	0.13332	-0.0088966
5.11	-9.12	-0.85727	0.13197	-0.012818
5.15	-8.991	-0.85291	0.13197	-0.015355
5.2	-8.909	-0.83217	0.12797	-0.018302
5.25	-8.731	-0.82563	0.12307	-0.016382
5.3	-8.568	-0.81781	0.12265	-0.016696
5.35	-8.35	-0.80811	0.11999	-0.015868
5.4	-8.104	-0.78871	0.11149	-0.014469
5.45	-7.782	-0.75459	0.10755	-0.019103
5.5	-7.52	-0.74237	0.10321	-0.018296
5.55	-7.229	-0.70853	0.096288	-0.019115
5.6	-6.854	-0.69171	0.088779	-0.014948
5.65	-6.567	-0.66805	0.081978	-0.014562
5.69	-6.212	-0.63305	0.077708	-0.017927
5.74	-5.853	-0.59636	0.070005	-0.020594
5.79	-5.468	-0.57727	0.061896	-0.015204
5.84	-5.08	-0.54196	0.055597	-0.017357
5.89	-4.716	-0.50206	0.049549	-0.017856
5.94	-4.269	-0.46232	0.041695	-0.020023
5.99	-3.852	-0.42956	0.036271	-0.019041
6.04	-3.377	-0.38901	0.029336	-0.017884
6.09	-2.929	-0.3557	0.025052	-0.017275
6.14	-2.465	-0.30678	0.018726	-0.015961
6.19	-2.003	-0.26938	0.01452	-0.015352
6.23	-1.509	-0.22004	0.0084058	-0.018088
