% Time() Angle(deg) Cn Ct Cm
0	14.28	0.96512	0.15957	0.0061006
0.05	14.51	1.0068	0.17021	0.0057497
0.1	14.76	1.0575	0.18568	0.0065291
0.15	14.96	1.1086	0.20173	0.0082242
0.2	15.23	1.162	0.2163	0.011371
0.25	15.48	1.2098	0.23468	0.0096555
0.29	15.72	1.2773	0.25011	0.0033463
0.34	16.02	1.3353	0.26852	0.003737
0.39	16.32	1.392	0.28651	-0.0020431
0.44	16.58	1.4375	0.3041	-0.0017957
0.49	16.89	1.496	0.32016	-0.0041368
0.54	17.19	1.5421	0.33812	-0.0050829
0.59	17.53	1.5823	0.35738	-0.0058429
0.64	17.82	1.613	0.37203	-0.0071055
0.69	18.15	1.6497	0.38662	-0.013421
0.74	18.48	1.6757	0.40167	-0.012178
0.79	18.82	1.699	0.41804	-0.016502
0.83	19.15	1.7098	0.42804	-0.020886
0.88	19.44	1.7	0.4399	-0.014998
0.93	19.83	1.7057	0.4492	-0.017537
0.98	20.15	1.7058	0.46015	-0.019838
1.03	20.51	1.7244	0.46982	-0.02626
1.08	20.84	1.7025	0.47844	-0.024831
1.13	21.15	1.7081	0.48608	-0.030221
1.18	21.51	1.7188	0.49621	-0.033444
1.23	21.83	1.7364	0.50363	-0.039945
1.28	22.18	1.7367	0.51417	-0.043168
1.33	22.49	1.7495	0.52509	-0.050823
1.37	22.81	1.7652	0.53381	-0.056629
1.42	23.14	1.7827	0.54206	-0.064817
1.47	23.44	1.7968	0.55208	-0.069894
1.52	23.77	1.7993	0.56095	-0.073097
1.57	24.03	1.8411	0.5663	-0.088651
1.62	24.32	1.8742	0.56892	-0.10489
1.67	24.59	1.9068	0.57202	-0.11342
1.72	24.86	1.9473	0.56785	-0.1327
1.77	25.11	2.0085	0.55665	-0.15426
1.82	25.33	2.0527	0.53701	-0.17586
1.87	25.51	2.1084	0.50679	-0.19959
1.91	25.69	2.2027	0.4642	-0.24175
1.96	25.87	2.3029	0.41965	-0.2751
2.01	26	2.3933	0.3718	-0.29849
2.06	26.11	2.5004	0.30223	-0.34081
2.11	26.2	2.5924	0.22861	-0.37968
2.16	26.28	2.6947	0.16872	-0.42783
2.21	26.29	2.7461	0.10462	-0.46375
2.26	26.3	2.7099	0.039934	-0.47919
2.31	26.29	2.638	-0.0046796	-0.48451
2.36	26.28	2.556	-0.043957	-0.50021
2.41	26.27	2.4666	-0.079655	-0.51015
2.45	26.2	2.3732	-0.10698	-0.5166
2.5	26.13	2.2291	-0.12651	-0.50473
2.55	26.09	2.1018	-0.12785	-0.47137
2.6	26	1.9483	-0.13244	-0.43423
2.65	25.93	1.8501	-0.14599	-0.41646
2.7	25.82	1.7398	-0.1579	-0.39434
2.75	25.75	1.6454	-0.17304	-0.37467
2.8	25.61	1.5313	-0.20065	-0.36302
2.85	25.51	1.4504	-0.23515	-0.38603
2.9	25.36	1.381	-0.25901	-0.39924
2.95	25.2	1.3575	-0.27006	-0.41971
2.99	25.06	1.2732	-0.27308	-0.41273
3.04	24.86	1.2108	-0.27461	-0.40617
3.09	24.68	1.1551	-0.258	-0.3836
3.14	24.49	1.0354	-0.23265	-0.32765
3.19	24.28	0.95719	-0.19955	-0.26852
3.24	24.07	0.91079	-0.16249	-0.21535
3.29	23.86	0.93309	-0.1328	-0.18706
3.34	23.68	0.95336	-0.10092	-0.15814
3.39	23.46	0.97201	-0.064428	-0.12831
3.44	23.24	0.96918	-0.027825	-0.083531
3.49	23	1.0185	-0.0075845	-0.074456
3.53	22.74	1.0602	0.010955	-0.057041
3.58	22.45	1.1202	0.021844	-0.052744
3.63	22.21	1.1872	0.027458	-0.06029
3.68	21.88	1.2625	0.030069	-0.074377
3.73	21.61	1.3308	0.031656	-0.092882
3.78	21.31	1.3323	0.03099	-0.098912
3.83	20.95	1.3532	0.029373	-0.11164
3.88	20.61	1.3667	0.023895	-0.12968
3.93	20.29	1.3864	0.017341	-0.15512
3.98	19.96	1.3712	0.0097705	-0.17258
4.03	19.6	1.3215	0.00048562	-0.17924
4.07	19.2	1.3316	-0.014588	-0.20439
4.12	18.89	1.3091	-0.022046	-0.2165
4.17	18.51	1.2723	-0.035356	-0.22444
4.22	18.19	1.2046	-0.040361	-0.21399
4.27	17.83	1.1294	-0.04912	-0.19487
4.32	17.46	1.0448	-0.056116	-0.17402
4.37	17.16	0.95936	-0.05845	-0.14975
4.42	16.82	0.91958	-0.064351	-0.1354
4.47	16.49	0.86428	-0.06382	-0.11879
4.52	16.19	0.8346	-0.06151	-0.1042
4.57	15.87	0.79623	-0.064491	-0.097445
4.61	15.61	0.78367	-0.063052	-0.10105
4.66	15.37	0.75085	-0.061078	-0.088561
4.71	15.13	0.73709	-0.05564	-0.082885
4.76	14.85	0.71019	-0.049682	-0.071761
4.81	14.64	0.68636	-0.045467	-0.062184
4.86	14.42	0.70244	-0.037675	-0.060455
4.91	14.22	0.67086	-0.033844	-0.052906
4.96	14.03	0.63644	-0.027862	-0.039193
5.01	13.86	0.62715	-0.024997	-0.042294
5.06	13.7	0.58364	-0.017651	-0.025352
5.11	13.58	0.59691	-0.010452	-0.026729
5.15	13.42	0.56829	-0.0047966	-0.019789
5.2	13.26	0.53396	-0.0023432	-0.012558
5.25	13.15	0.52627	0.0064868	-0.0083657
5.3	13.07	0.51326	0.013853	-0.0028057
5.35	13	0.48464	0.020962	0.0078336
5.4	12.96	0.46543	0.026874	0.017676
5.45	12.87	0.46252	0.031891	0.019133
5.5	12.84	0.46096	0.037339	0.023804
5.55	12.84	0.46741	0.041383	0.027924
5.6	12.84	0.47993	0.048556	0.028728
5.65	12.85	0.49877	0.051945	0.024614
5.69	12.88	0.53467	0.058166	0.023485
5.74	12.92	0.56314	0.063369	0.017937
5.79	12.97	0.60558	0.067885	0.0064157
5.84	13	0.60238	0.076111	0.015129
5.89	13.08	0.63364	0.081922	0.011471
5.94	13.15	0.67513	0.085626	0.0035461
5.99	13.26	0.69522	0.09185	0.0046255
6.04	13.39	0.72219	0.10062	0.007587
6.09	13.52	0.75436	0.10663	0.0043533
6.14	13.65	0.77768	0.11582	0.0095549
6.19	13.84	0.8104	0.12379	0.0084096
6.23	14.04	0.84861	0.13716	0.013012
