% Time() Angle(deg) Cn Ct Cm
0	8.404	0.80359	0.089173	-0.0025562
0.05	8.637	0.83914	0.095132	-0.0055631
0.1	8.882	0.85054	0.10043	-0.0023546
0.15	9.175	0.88497	0.1074	-0.0039225
0.2	9.427	0.90325	0.11215	-0.0035676
0.25	9.67	0.91965	0.11878	-0.0028188
0.29	9.966	0.94909	0.12535	-0.004811
0.34	10.2	0.96364	0.13205	-0.0032629
0.39	10.43	0.98846	0.14005	-0.00032329
0.44	10.72	1.0078	0.14516	-0.003384
0.49	10.94	1.0342	0.15007	-0.0064838
0.54	11.23	1.0633	0.15674	-0.0073781
0.59	11.45	1.0739	0.16731	-0.0048579
0.64	11.71	1.09	0.17412	-0.0013458
0.69	11.98	1.1185	0.1831	-0.0046535
0.74	12.2	1.1361	0.19192	-0.0015622
0.79	12.44	1.1688	0.20048	-0.0020308
0.83	12.72	1.1917	0.20982	-0.0026035
0.88	12.92	1.2102	0.21908	-0.0019882
0.93	13.16	1.2237	0.22846	-0.0014758
0.98	13.38	1.2421	0.23862	0.0020135
1.03	13.6	1.2603	0.24679	0.00171
1.08	13.85	1.2854	0.25718	0.0029444
1.13	14.02	1.2988	0.26557	0.0041988
1.18	14.22	1.2968	0.27352	0.0073216
1.23	14.36	1.322	0.28235	0.0075374
1.28	14.51	1.3315	0.2902	0.0075801
1.33	14.68	1.3394	0.29657	0.011396
1.37	14.79	1.3524	0.30011	0.010549
1.42	14.91	1.3581	0.3086	0.013678
1.47	15.01	1.3437	0.31207	0.018714
1.52	15.07	1.3523	0.31685	0.01908
1.57	15.18	1.3583	0.31952	0.015453
1.62	15.26	1.3551	0.32167	0.017107
1.67	15.23	1.3613	0.32597	0.018371
1.72	15.29	1.3636	0.32854	0.020253
1.77	15.32	1.3692	0.32957	0.018389
1.82	15.32	1.3573	0.33318	0.019951
1.87	15.35	1.3512	0.33445	0.023759
1.91	15.29	1.3624	0.33383	0.021006
1.96	15.28	1.3548	0.33213	0.021497
2.01	15.29	1.3675	0.33041	0.016126
2.06	15.26	1.3586	0.32994	0.018045
2.11	15.23	1.3573	0.33178	0.020157
2.16	15.21	1.348	0.33305	0.023399
2.21	15.17	1.3463	0.33236	0.021907
2.26	15.12	1.3289	0.33228	0.027656
2.31	15.04	1.3188	0.3258	0.025862
2.36	14.91	1.3154	0.32352	0.027522
2.41	14.83	1.3122	0.32172	0.026276
2.45	14.74	1.2656	0.31574	0.033219
2.5	14.61	1.2506	0.31233	0.036267
2.55	14.46	1.2359	0.30657	0.03329
2.6	14.32	1.2301	0.30132	0.033775
2.65	14.18	1.2166	0.29667	0.036259
2.7	14.01	1.1921	0.29065	0.041364
2.75	13.81	1.1801	0.286	0.039542
2.8	13.65	1.1734	0.28097	0.039
2.85	13.42	1.1529	0.27365	0.040323
2.9	13.18	1.1076	0.26404	0.049383
2.95	12.99	1.0867	0.25604	0.045127
2.99	12.75	1.0797	0.24956	0.043757
3.04	12.53	1.0772	0.2403	0.04201
3.09	12.27	1.0526	0.23154	0.041902
3.14	12.04	1.0238	0.22426	0.043407
3.19	11.84	0.99676	0.21632	0.045693
3.24	11.55	0.98507	0.20806	0.044091
3.29	11.33	0.96616	0.19857	0.042813
3.34	11.09	0.9561	0.18993	0.03859
3.39	10.83	0.93091	0.18398	0.041804
3.44	10.6	0.90565	0.17737	0.042623
3.49	10.33	0.89656	0.17074	0.039517
3.53	10.1	0.8721	0.16401	0.042848
3.58	9.909	0.86603	0.15841	0.040234
3.63	9.599	0.83447	0.15089	0.044617
3.68	9.352	0.82767	0.14323	0.039
3.73	9.134	0.80295	0.13983	0.041566
3.78	8.843	0.80008	0.13494	0.039994
3.83	8.612	0.77149	0.12727	0.040777
3.88	8.395	0.75792	0.12183	0.037577
3.93	8.14	0.75091	0.11531	0.03326
3.98	7.872	0.7274	0.10938	0.03407
4.03	7.667	0.71112	0.105	0.035488
4.07	7.41	0.69168	0.098599	0.033632
4.12	7.206	0.68152	0.092421	0.029164
4.17	6.978	0.67209	0.089004	0.029301
4.22	6.8	0.67247	0.085725	0.023394
4.27	6.65	0.65998	0.080324	0.021823
4.32	6.418	0.64957	0.077003	0.019153
4.37	6.238	0.62477	0.072488	0.021124
4.42	6.05	0.62001	0.069365	0.019362
4.47	5.914	0.61575	0.066532	0.012982
4.52	5.817	0.61616	0.064237	0.014654
4.57	5.652	0.59961	0.060109	0.011672
4.61	5.512	0.59396	0.058354	0.012538
4.66	5.46	0.57995	0.055495	0.013488
4.71	5.352	0.58003	0.053441	0.0085858
4.76	5.282	0.57238	0.051861	0.012749
4.81	5.249	0.57404	0.051111	0.007157
4.86	5.183	0.56676	0.048078	0.0072489
4.91	5.176	0.55406	0.047286	0.0089656
4.96	5.154	0.54778	0.044405	0.011016
5.01	5.139	0.56263	0.044858	0.0042917
5.06	5.139	0.54965	0.043955	0.0067659
5.11	5.147	0.56292	0.04485	0.0036175
5.15	5.136	0.54342	0.044357	0.010189
5.2	5.16	0.54004	0.043257	0.0079567
5.25	5.173	0.52969	0.044247	0.010418
5.3	5.21	0.53974	0.044448	0.0067022
5.35	5.202	0.54232	0.04335	0.0062559
5.4	5.249	0.55062	0.042345	0.0033393
5.45	5.326	0.55026	0.041403	0.0022273
5.5	5.384	0.55848	0.042226	1.2359e-05
5.55	5.467	0.55996	0.04474	0.0026941
5.6	5.579	0.58557	0.045323	-0.0013807
5.64	5.725	0.58962	0.047067	-0.00048181
5.69	5.853	0.61315	0.048922	-0.00044978
5.74	6	0.62153	0.050163	-0.0023701
5.79	6.143	0.6256	0.052216	-0.00033433
5.84	6.332	0.67585	0.055097	-0.010052
5.89	6.509	0.68865	0.058378	-0.010808
5.94	6.697	0.69016	0.061596	-0.0064091
5.99	6.901	0.70425	0.064392	-0.0050881
6.04	7.119	0.73854	0.067171	-0.0098963
6.09	7.321	0.73644	0.070862	-0.0050726
6.14	7.526	0.75263	0.074915	-0.0021122
6.18	7.803	0.78999	0.078378	-0.012451
6.23	8.029	0.8021	0.082837	-0.0060996
