% Time() Angle(deg) Cn Ct Cm
0	-2.148	-0.19925	0.0024999	-0.015997
0.05	-1.908	-0.18023	0.0029125	-0.019463
0.1	-1.698	-0.15808	0.0039195	-0.016183
0.15	-1.457	-0.12964	0.0027626	-0.017075
0.2	-1.193	-0.076983	0.0017056	-0.027298
0.25	-0.9075	-0.090885	-1.8609e-05	-0.016181
0.29	-0.6011	-0.046635	-0.0014785	-0.023663
0.34	-0.2898	-0.012088	-0.0023458	-0.025707
0.39	0.04751	0.027949	-0.00338	-0.030079
0.44	0.3685	0.048659	-0.0029917	-0.026813
0.49	0.7124	0.076073	-0.0041507	-0.027671
0.54	1.048	0.09142	-0.0032556	-0.021534
0.59	1.423	0.11902	-0.0047862	-0.021823
0.64	1.779	0.13564	-0.0047746	-0.020446
0.69	2.116	0.15661	-0.0047996	-0.017292
0.74	2.48	0.19549	-0.0054945	-0.01913
0.79	2.821	0.22537	-0.0029342	-0.018589
0.83	3.223	0.24965	-0.001186	-0.014372
0.88	3.565	0.30611	0.0025114	-0.023975
0.93	3.905	0.33309	0.0048274	-0.019463
0.98	4.287	0.36724	0.0086208	-0.020043
1.03	4.62	0.39666	0.011223	-0.019247
1.08	4.982	0.43159	0.014004	-0.020782
1.13	5.319	0.45331	0.0159	-0.017033
1.18	5.678	0.48444	0.019107	-0.015791
1.23	5.987	0.49684	0.023098	-0.012185
1.28	6.326	0.52675	0.027206	-0.011274
1.33	6.676	0.55499	0.033328	-0.012466
1.37	6.985	0.58719	0.038413	-0.0090488
1.42	7.277	0.61862	0.045846	-0.01009
1.47	7.56	0.64497	0.051223	-0.0096798
1.52	7.87	0.66753	0.057457	-0.0065808
1.57	8.119	0.69828	0.063397	-0.0058347
1.62	8.372	0.71527	0.069638	-0.0035193
1.67	8.611	0.73652	0.075041	-0.0002036
1.72	8.859	0.76276	0.082287	-0.0022603
1.77	9.072	0.76595	0.085523	0.0018659
1.82	9.27	0.78813	0.092212	0.001151
1.87	9.418	0.81178	0.098617	0.0018857
1.91	9.567	0.8295	0.10297	0.0016911
1.96	9.71	0.83399	0.11031	0.0057554
2.01	9.837	0.86151	0.11374	0.0031609
2.06	9.933	0.86421	0.1189	0.0059487
2.11	9.985	0.87331	0.12283	0.008459
2.16	10.05	0.86336	0.12477	0.01309
2.21	10.05	0.85438	0.12711	0.019798
2.26	10.1	0.85557	0.12872	0.018935
2.31	10.06	0.85253	0.12897	0.02086
2.36	10.06	0.88239	0.12987	0.011149
2.41	10.02	0.88221	0.13097	0.012894
2.45	9.98	0.90368	0.13503	0.0086978
2.5	9.937	0.89063	0.13378	0.015434
2.55	9.911	0.88486	0.13429	0.015379
2.6	9.824	0.89499	0.13338	0.010851
2.65	9.755	0.84055	0.13155	0.023563
2.7	9.72	0.83956	0.13129	0.022008
2.75	9.615	0.83337	0.13005	0.023524
2.8	9.509	0.81071	0.12662	0.027632
2.85	9.385	0.82071	0.12584	0.020431
2.9	9.245	0.80475	0.12638	0.024371
2.95	9.089	0.81885	0.12727	0.023907
2.99	8.938	0.81709	0.12523	0.020525
3.04	8.764	0.81578	0.1216	0.017149
3.09	8.603	0.77194	0.11703	0.025122
3.14	8.411	0.7668	0.1118	0.02282
3.19	8.206	0.75349	0.10748	0.021259
3.24	7.949	0.72014	0.10426	0.028743
3.29	7.741	0.71898	0.10083	0.023028
3.34	7.496	0.68286	0.096818	0.025326
3.39	7.227	0.66875	0.091464	0.023588
3.44	6.972	0.63627	0.084101	0.027523
3.49	6.7	0.60349	0.079302	0.028553
3.53	6.392	0.57219	0.073309	0.032427
3.58	6.072	0.53873	0.066457	0.034258
3.63	5.752	0.52896	0.062361	0.030206
3.68	5.384	0.50848	0.056446	0.028511
3.73	5.082	0.48116	0.052594	0.028779
3.78	4.717	0.46484	0.047909	0.026586
3.83	4.415	0.43373	0.042959	0.02456
3.88	4.028	0.39592	0.036396	0.029142
3.93	3.675	0.37077	0.031765	0.026178
3.98	3.319	0.34446	0.025232	0.024114
4.03	2.948	0.31049	0.02103	0.024805
4.07	2.587	0.27684	0.018069	0.02514
4.12	2.234	0.24553	0.014082	0.023971
4.17	1.918	0.20921	0.010569	0.023827
4.22	1.499	0.17791	0.0078976	0.025023
4.27	1.144	0.14958	0.006587	0.024585
4.32	0.8248	0.13036	0.0032281	0.021387
4.37	0.4777	0.087865	-7.267e-05	0.022992
4.42	0.1404	0.061844	-0.00070984	0.020558
4.47	-0.1823	0.043295	-0.0036988	0.018026
4.52	-0.5196	0.012036	-0.0035613	0.019984
4.57	-0.8228	-0.007977	-0.0032809	0.016887
4.61	-1.103	-0.03993	-0.0042989	0.016829
4.66	-1.396	-0.059858	-0.0042305	0.012711
4.71	-1.639	-0.081236	-0.0039252	0.01288
4.76	-1.916	-0.10931	-0.0033636	0.011851
4.81	-2.164	-0.12491	-0.0039571	0.0083657
4.86	-2.403	-0.14753	-0.0037077	0.0098472
4.91	-2.592	-0.18558	-0.0023333	0.012528
4.96	-2.797	-0.18621	-0.0009091	0.0077291
5.01	-2.97	-0.21301	-0.0014816	0.00779
5.06	-3.12	-0.23008	0.0013198	0.0082828
5.11	-3.266	-0.2359	0.0015862	0.0038002
5.15	-3.429	-0.2495	0.0030442	0.0025622
5.2	-3.524	-0.26346	0.0054629	0.0038046
5.25	-3.587	-0.25249	0.0071806	-0.0058563
5.3	-3.651	-0.26429	0.0077213	-0.0042743
5.35	-3.696	-0.27242	0.0088944	-0.0030229
5.4	-3.764	-0.27864	0.010267	-0.0051752
5.45	-3.771	-0.27858	0.011787	-0.0072209
5.5	-3.79	-0.28978	0.012577	-0.0069209
5.55	-3.737	-0.29561	0.011791	-0.0052772
5.6	-3.737	-0.3003	0.012148	-0.0043474
5.64	-3.73	-0.31062	0.010263	-0.0060797
5.69	-3.685	-0.31175	0.011629	-0.003228
5.74	-3.657	-0.30458	0.012829	-0.0067135
5.79	-3.605	-0.30587	0.012693	-0.0060009
5.84	-3.524	-0.28461	0.012543	-0.010794
5.89	-3.468	-0.28229	0.015389	-0.015977
5.94	-3.374	-0.24729	0.015094	-0.021107
5.99	-3.261	-0.25122	0.015695	-0.018164
6.04	-3.146	-0.24178	0.014798	-0.017733
6.09	-2.985	-0.24406	0.012464	-0.014897
6.14	-2.845	-0.22762	0.010639	-0.015652
6.18	-2.617	-0.22554	0.0089256	-0.017862
6.23	-2.439	-0.25965	0.0058555	-0.0024953
