% Time() Angle(deg) Cn Ct Cm
0	-0.6109	-0.13943	-0.00040787	-0.012403
0.05	0.2202	-0.058269	-0.0018451	-0.014267
0.1	1.066	0.02151	-0.0040364	-0.0099908
0.15	1.903	0.096146	-0.0033515	-0.0084938
0.2	2.72	0.17939	-0.0014759	-0.0094737
0.25	3.565	0.26113	0.0026147	-0.007906
0.29	4.394	0.33907	0.010369	-0.0081173
0.34	5.217	0.42154	0.019439	-0.0071004
0.39	5.997	0.49182	0.029629	-0.0020589
0.44	6.802	0.57716	0.042303	-0.003378
0.49	7.575	0.64982	0.058996	-0.0019737
0.54	8.317	0.7241	0.077496	-0.00021371
0.59	9.002	0.78483	0.09376	0.0031144
0.64	9.737	0.84724	0.11406	0.0020919
0.69	10.4	0.91858	0.13404	0.0031841
0.74	11.06	0.99511	0.15487	-0.00063335
0.79	11.69	1.0458	0.17677	0.0043865
0.83	12.24	1.0936	0.19639	0.0056641
0.88	12.81	1.142	0.21849	0.0090873
0.93	13.37	1.1931	0.24547	0.012005
0.98	13.87	1.2327	0.26561	0.013977
1.03	14.33	1.2727	0.2854	0.014318
1.08	14.73	1.2974	0.30246	0.015629
1.13	15.08	1.3143	0.31497	0.01869
1.18	15.45	1.3402	0.32545	0.014064
1.23	15.7	1.3423	0.33297	0.019722
1.28	16	1.369	0.34685	0.014932
1.33	16.23	1.3581	0.35355	0.017975
1.37	16.39	1.3763	0.35784	0.012514
1.42	16.56	1.3725	0.35787	0.011124
1.47	16.65	1.3714	0.35656	0.0062563
1.52	16.73	1.3527	0.35306	0.006169
1.57	16.75	1.3436	0.34523	-0.0023217
1.62	16.76	1.3249	0.33616	-0.0052478
1.67	16.77	1.3077	0.32357	-0.011014
1.72	16.73	1.2917	0.31095	-0.023999
1.77	16.69	1.2697	0.29638	-0.029503
1.82	16.53	1.2274	0.27086	-0.040708
1.87	16.38	1.1763	0.23911	-0.048819
1.91	16.14	1.0966	0.21183	-0.041495
1.96	15.83	1.0604	0.18372	-0.05554
2.01	15.56	1.0354	0.15934	-0.065416
2.06	15.18	0.94151	0.14538	-0.049528
2.11	14.81	0.89827	0.13164	-0.043726
2.16	14.37	0.87901	0.12602	-0.034127
2.21	13.9	0.86988	0.1235	-0.035893
2.26	13.4	0.78746	0.12097	-0.0056101
2.31	12.88	0.7515	0.11895	0.0054547
2.36	12.34	0.71343	0.11871	0.019509
2.41	11.78	0.67961	0.11658	0.035952
2.45	11.19	0.68543	0.11376	0.033735
2.5	10.57	0.67544	0.10882	0.037886
2.55	9.913	0.64723	0.10445	0.045532
2.6	9.236	0.61991	0.096779	0.047782
2.65	8.512	0.61658	0.088177	0.040958
2.7	7.783	0.60114	0.080972	0.035173
2.75	7.035	0.56714	0.069943	0.033856
2.8	6.293	0.53426	0.058411	0.027996
2.85	5.498	0.48647	0.048337	0.023817
2.9	4.714	0.42772	0.036732	0.021386
2.95	3.918	0.37132	0.026742	0.018658
2.99	3.109	0.30852	0.017793	0.014662
3.04	2.286	0.22426	0.0091158	0.016713
3.09	1.429	0.15811	0.003057	0.015645
3.14	0.613	0.081455	-0.00035412	0.011937
3.19	-0.1921	0.013002	-0.0032963	0.010138
3.24	-1.023	-0.070183	-0.0055085	0.012159
3.29	-1.867	-0.15934	-0.0019295	0.013043
3.34	-2.706	-0.23613	0.000509	0.0099644
3.39	-3.535	-0.32136	0.0068985	0.010207
3.44	-4.375	-0.39255	0.016284	0.0081986
3.49	-5.161	-0.46316	0.027432	0.0037473
3.53	-5.982	-0.54832	0.038648	0.0058944
3.58	-6.785	-0.62095	0.054183	0.0041811
3.63	-7.551	-0.70029	0.070526	0.0048467
3.68	-8.319	-0.77965	0.087181	0.0047312
3.73	-9.048	-0.84379	0.10726	0.0033333
3.78	-9.746	-0.91139	0.12803	0.0035035
3.83	-10.41	-0.97073	0.14913	0.0016496
3.88	-11.09	-1.0254	0.17257	0.001335
3.93	-11.73	-1.0838	0.19638	0.0011881
3.98	-12.32	-1.1354	0.2189	-0.0018033
4.03	-12.93	-1.1719	0.24012	-0.004555
4.07	-13.47	-1.2121	0.2607	-0.0051943
4.12	-13.96	-1.2488	0.28338	-0.0089275
4.17	-14.42	-1.2959	0.30103	-0.0040303
4.22	-14.85	-1.3196	0.31759	-0.0032979
4.27	-15.27	-1.3199	0.32986	-0.0056292
4.32	-15.64	-1.3462	0.34261	-0.0061903
4.37	-15.92	-1.3583	0.34762	0.0024721
4.42	-16.15	-1.3698	0.35786	0.0028409
4.47	-16.4	-1.3757	0.35999	0.0056103
4.52	-16.58	-1.3546	0.35921	0.0072475
4.57	-16.75	-1.3723	0.35414	0.017197
4.61	-16.86	-1.3427	0.34723	0.019487
4.66	-16.9	-1.3357	0.33826	0.029549
4.71	-16.94	-1.3205	0.3232	0.037606
4.76	-16.96	-1.3322	0.2989	0.055998
4.81	-16.98	-1.3072	0.27248	0.073614
4.86	-16.95	-1.2836	0.24284	0.087771
4.91	-16.92	-1.2149	0.22057	0.081824
4.96	-16.8	-1.1649	0.20051	0.081458
5.01	-16.65	-1.1088	0.18776	0.069441
5.06	-16.36	-1.0288	0.16999	0.056708
5.11	-16.06	-0.97448	0.15955	0.046411
5.15	-15.77	-0.94788	0.154	0.043646
5.2	-15.43	-0.92231	0.15377	0.035742
5.25	-15.05	-0.85321	0.14982	0.017813
5.3	-14.58	-0.8332	0.14407	0.012673
5.35	-14.14	-0.79034	0.13835	0.0027304
5.4	-13.61	-0.74811	0.13822	-0.013537
5.45	-13.08	-0.73632	0.13357	-0.017839
5.5	-12.55	-0.72333	0.13157	-0.027375
5.55	-12	-0.70789	0.12704	-0.031614
5.6	-11.37	-0.70522	0.12429	-0.035447
5.65	-10.74	-0.69272	0.12141	-0.033984
5.69	-10.04	-0.68221	0.11536	-0.039569
5.74	-9.341	-0.66264	0.10769	-0.040961
5.79	-8.652	-0.65267	0.10088	-0.037367
5.84	-7.936	-0.62066	0.093423	-0.042101
5.89	-7.18	-0.60561	0.08225	-0.033684
5.94	-6.439	-0.5683	0.070371	-0.029888
5.99	-5.649	-0.5377	0.057259	-0.023594
6.04	-4.823	-0.48236	0.048016	-0.022556
6.09	-4.033	-0.42584	0.037944	-0.019651
6.14	-3.218	-0.36629	0.027266	-0.016191
6.19	-2.408	-0.30271	0.017292	-0.013858
6.23	-1.538	-0.2311	0.008448	-0.013865
