% Time() Angle(deg) Cn Ct Cm
0	9.153	0.86544	0.10005	-0.0075825
0.05	9.529	0.91833	0.11096	-0.0091292
0.1	9.863	0.94696	0.12065	-0.0034365
0.15	10.25	1.0109	0.13234	-0.0079224
0.2	10.65	1.0543	0.14449	-0.008562
0.25	11.08	1.1017	0.15905	-0.0091022
0.29	11.49	1.1413	0.1693	-0.0098369
0.34	11.92	1.1663	0.17997	-0.012447
0.39	12.31	1.1959	0.19127	-0.0088143
0.44	12.74	1.2257	0.20446	-0.013366
0.49	13.18	1.2553	0.21747	-0.012046
0.54	13.59	1.2802	0.23131	-0.012907
0.59	14.05	1.3002	0.24247	-0.011456
0.64	14.51	1.3189	0.25772	-0.010036
0.69	14.95	1.3437	0.274	-0.0096234
0.74	15.4	1.3746	0.29038	-0.010235
0.79	15.88	1.3917	0.30391	-0.008772
0.83	16.37	1.4313	0.31948	-0.012802
0.88	16.86	1.4438	0.33702	-0.0075471
0.93	17.35	1.4767	0.35626	-0.0068308
0.98	17.78	1.525	0.37653	-0.0093316
1.03	18.25	1.5659	0.39885	-0.011103
1.08	18.67	1.6206	0.4234	-0.014195
1.13	19.12	1.6739	0.44824	-0.015299
1.18	19.55	1.7087	0.47249	-0.016125
1.23	19.96	1.7529	0.49932	-0.015564
1.28	20.36	1.816	0.52681	-0.021428
1.33	20.8	1.85	0.55023	-0.022317
1.37	21.13	1.8895	0.5724	-0.026714
1.42	21.53	1.9218	0.5918	-0.032367
1.47	21.86	1.9361	0.60838	-0.034533
1.52	22.18	1.9726	0.62137	-0.046073
1.57	22.44	1.9854	0.62582	-0.056012
1.62	22.72	1.9945	0.62585	-0.07139
1.67	23.01	2.0065	0.62388	-0.085778
1.72	23.21	2.0262	0.6129	-0.10236
1.77	23.38	2.017	0.59333	-0.11622
1.82	23.57	2.0297	0.5677	-0.13653
1.87	23.75	2.0706	0.53045	-0.16291
1.91	23.87	2.098	0.48264	-0.19508
1.96	23.95	2.1783	0.42494	-0.24017
2.01	24.06	2.2469	0.35677	-0.2922
2.06	24.08	2.316	0.27634	-0.34712
2.11	24.11	2.3951	0.20322	-0.38935
2.16	24.11	2.3578	0.13312	-0.41187
2.21	24.11	2.3517	0.074463	-0.43276
2.26	24.05	2.3379	0.010244	-0.44868
2.31	24.02	2.2314	-0.04804	-0.4414
2.36	23.98	2.1302	-0.08574	-0.42694
2.41	23.89	2.033	-0.12504	-0.43168
2.45	23.86	1.9475	-0.16032	-0.45206
2.5	23.75	1.8219	-0.1783	-0.4349
2.55	23.7	1.7095	-0.1888	-0.41971
2.6	23.54	1.5142	-0.17679	-0.35017
2.65	23.41	1.3787	-0.16516	-0.30906
2.7	23.28	1.2895	-0.15869	-0.28029
2.75	23.1	1.1922	-0.13694	-0.23473
2.8	22.91	1.1255	-0.10727	-0.19359
2.85	22.7	1.0904	-0.088316	-0.16046
2.9	22.5	1.0642	-0.065301	-0.13245
2.95	22.24	0.99512	-0.041169	-0.092845
2.99	22.02	1.0145	-0.019371	-0.078618
3.04	21.75	1.0616	-0.0062843	-0.07591
3.09	21.42	1.1652	-0.007889	-0.1053
3.14	21.09	1.2225	-0.0062733	-0.1351
3.19	20.71	1.2078	-0.0066818	-0.14206
3.24	20.33	1.216	-0.011443	-0.15522
3.29	19.94	1.1783	-0.028012	-0.17058
3.34	19.52	1.1599	-0.039672	-0.18581
3.39	19.09	1.0977	-0.052658	-0.18717
3.44	18.6	1.0349	-0.063992	-0.18108
3.49	18.18	0.97816	-0.070737	-0.17243
3.53	17.71	0.88452	-0.075409	-0.14369
3.58	17.22	0.81787	-0.077368	-0.12024
3.63	16.75	0.75608	-0.080597	-0.10756
3.68	16.3	0.71737	-0.074046	-0.093845
3.73	15.86	0.68158	-0.073781	-0.080826
3.78	15.41	0.64738	-0.076145	-0.073689
3.83	14.98	0.64106	-0.072836	-0.067658
3.88	14.54	0.59118	-0.067399	-0.056885
3.93	14.17	0.55675	-0.057832	-0.046552
3.98	13.77	0.49747	-0.052019	-0.032897
4.02	13.35	0.44462	-0.039777	-0.014797
4.07	12.98	0.36986	-0.030319	0.0035249
4.12	12.55	0.33279	-0.019025	0.012615
4.17	12.13	0.29768	-0.013191	0.020093
4.22	11.74	0.27948	-0.0051463	0.02584
4.27	11.36	0.24488	0.0014347	0.036163
4.32	10.94	0.21289	0.0062111	0.048072
4.37	10.57	0.21047	0.0099478	0.047977
4.42	10.14	0.19537	0.014383	0.052674
4.47	9.807	0.20396	0.018208	0.053896
4.52	9.435	0.20497	0.021363	0.058292
4.56	9.086	0.20996	0.023682	0.057966
4.61	8.754	0.23952	0.025164	0.051318
4.66	8.388	0.26189	0.026746	0.047318
4.71	8.088	0.26332	0.028109	0.051001
4.76	7.823	0.28959	0.030343	0.042183
4.81	7.557	0.31301	0.030023	0.040603
4.86	7.28	0.31894	0.031386	0.047481
4.91	7.092	0.35069	0.034184	0.043404
4.96	6.912	0.37342	0.036116	0.040069
5.01	6.738	0.38223	0.034673	0.042709
5.06	6.574	0.41929	0.036317	0.036964
5.1	6.454	0.4464	0.035194	0.036873
5.15	6.385	0.471	0.035375	0.027707
5.2	6.289	0.48097	0.03899	0.031766
5.25	6.217	0.5232	0.039575	0.022238
5.3	6.154	0.53238	0.039652	0.022193
5.35	6.13	0.53329	0.040996	0.019428
5.4	6.126	0.55668	0.041684	0.010176
5.45	6.146	0.53739	0.041255	0.015447
5.5	6.156	0.54451	0.040674	0.0068124
5.55	6.177	0.53444	0.040634	0.0086025
5.6	6.198	0.51869	0.040044	0.0083539
5.64	6.228	0.51797	0.040836	0.0082958
5.69	6.331	0.50707	0.041214	0.0087368
5.74	6.404	0.52059	0.041126	0.0028364
5.79	6.547	0.5275	0.042799	0.0010499
5.84	6.651	0.54062	0.043223	-0.0025027
5.89	6.868	0.55957	0.045208	-0.005328
5.94	7.061	0.577	0.047856	-0.0041484
5.99	7.283	0.61036	0.055406	-0.0061759
6.04	7.525	0.63703	0.057422	-0.0052711
6.09	7.771	0.67579	0.065738	-0.0076485
6.14	8.068	0.70168	0.070597	-0.0056963
6.18	8.364	0.74352	0.07828	-0.0058515
6.23	8.681	0.79491	0.085924	-0.00816
