% Time() Angle(deg) Cn Ct Cm
0	7.3114	0.64799	0.06501	0.0042487
0.05	7.8436	0.70204	0.078536	0.0051358
0.1	8.3116	0.74864	0.091885	0.0057954
0.15	8.8153	0.78146	0.10405	0.0080537
0.2	9.2837	0.82939	0.11861	0.0091698
0.25	9.7846	0.86397	0.13111	0.011721
0.29	10.229	0.91937	0.14606	0.0085311
0.34	10.737	0.95492	0.16247	0.01243
0.39	11.178	0.98866	0.17696	0.014361
0.44	11.598	1.0127	0.19113	0.01603
0.49	12.03	1.06	0.2055	0.015216
0.54	12.483	1.0989	0.22243	0.015342
0.59	12.908	1.128	0.23495	0.016336
0.64	13.266	1.1504	0.24598	0.017501
0.69	13.641	1.171	0.25998	0.018199
0.74	14	1.1906	0.27171	0.019459
0.79	14.394	1.2169	0.28399	0.019199
0.83	14.64	1.2221	0.29241	0.017436
0.88	14.942	1.2321	0.30271	0.017433
0.93	15.24	1.2566	0.3125	0.017993
0.98	15.51	1.2588	0.31755	0.019768
1.03	15.732	1.255	0.32339	0.015032
1.08	15.966	1.2516	0.31842	0.0081302
1.13	16.168	1.2464	0.31696	0.0057058
1.18	16.339	1.2399	0.31652	-0.00035628
1.23	16.492	1.2383	0.30651	-0.010474
1.28	16.626	1.2108	0.29496	-0.017548
1.33	16.727	1.1888	0.27159	-0.033039
1.37	16.795	1.1476	0.24739	-0.041986
1.42	16.891	1.122	0.23	-0.049636
1.47	16.975	1.0687	0.21651	-0.044005
1.52	16.972	1.0258	0.19844	-0.041158
1.57	16.985	0.98108	0.19076	-0.028921
1.62	16.969	0.96559	0.18959	-0.028069
1.67	16.956	0.94525	0.18715	-0.02121
1.72	16.882	0.93223	0.18642	-0.016759
1.77	16.809	0.90106	0.17819	-0.011121
1.82	16.688	0.87689	0.1825	-0.0010496
1.87	16.508	0.87684	0.18069	0.00085365
1.91	16.339	0.8604	0.18171	0.0077808
1.96	16.129	0.88639	0.18636	0.0061677
2.01	15.902	0.89576	0.18929	0.0073358
2.06	15.673	0.9011	0.19161	0.0081418
2.11	15.402	0.90348	0.1938	0.017006
2.16	15.111	0.90933	0.19649	0.019604
2.21	14.798	0.91914	0.20106	0.023813
2.26	14.459	0.92303	0.19873	0.022026
2.31	14.116	0.91108	0.20081	0.033252
2.36	13.73	0.92652	0.19901	0.030571
2.41	13.368	0.92848	0.19899	0.031245
2.45	12.943	0.9356	0.19538	0.032752
2.5	12.537	0.92997	0.19244	0.037268
2.55	12.095	0.91717	0.18474	0.037564
2.6	11.677	0.90842	0.1773	0.034137
2.65	11.246	0.91112	0.17175	0.03089
2.7	10.787	0.9001	0.16356	0.029991
2.75	10.334	0.87419	0.15135	0.028443
2.8	9.8654	0.85398	0.14355	0.023252
2.85	9.379	0.82185	0.13295	0.023173
2.9	8.9074	0.79902	0.12282	0.023307
2.95	8.4052	0.76083	0.11082	0.023441
2.99	7.9211	0.72003	0.098916	0.019035
3.04	7.4178	0.6774	0.088183	0.022013
3.09	6.9213	0.64208	0.076216	0.018901
3.14	6.4331	0.60618	0.068074	0.0146
3.19	5.9179	0.57012	0.058551	0.012978
3.24	5.4466	0.51981	0.047807	0.013334
3.29	4.9548	0.47983	0.03852	0.011361
3.34	4.4859	0.42612	0.029155	0.012461
3.39	4.0111	0.38287	0.022213	0.0096531
3.44	3.5127	0.33769	0.016836	0.0089825
3.49	3.0629	0.29199	0.010386	0.0076493
3.53	2.6007	0.24727	0.0054893	0.0069517
3.58	2.1695	0.20754	0.0019326	0.0061119
3.63	1.7308	0.16693	-0.0017484	0.0051973
3.68	1.3181	0.12441	-0.0043823	0.0039408
3.73	0.91229	0.081829	-0.0041516	0.006091
3.78	0.5308	0.047643	-0.0059005	0.003099
3.83	0.16724	0.01905	-0.0068974	0.004337
3.88	-0.19589	-0.031859	-0.0068066	0.0065529
3.93	-0.52057	-0.044518	-0.0068072	-0.0010383
3.98	-0.84172	-0.088855	-0.0064278	0.0046342
4.03	-1.1578	-0.1233	-0.0047138	0.0044697
4.07	-1.4545	-0.15437	-0.0021769	0.00062625
4.12	-1.7225	-0.18505	0.00011278	0.0015984
4.17	-1.9509	-0.20469	0.0010254	-0.0022245
4.22	-2.1634	-0.22493	0.001915	-0.0026624
4.27	-2.3694	-0.25373	0.0042054	-7.9321e-05
4.32	-2.5516	-0.26956	0.0059584	0.00021303
4.37	-2.7212	-0.27756	0.009172	-0.0024297
4.42	-2.8153	-0.291	0.0090202	-0.0026482
4.47	-2.9298	-0.30629	0.0095069	-0.0011789
4.52	-3.027	-0.31667	0.012161	-0.003573
4.57	-3.0881	-0.32174	0.011554	-0.001387
4.61	-3.143	-0.33091	0.011869	-0.00052175
4.66	-3.1477	-0.32703	0.013756	-0.0039326
4.71	-3.1712	-0.34562	0.017366	-0.00062576
4.76	-3.1743	-0.34725	0.016645	-0.0029273
4.81	-3.1492	-0.34463	0.01534	-0.003563
4.86	-3.1289	-0.34679	0.016175	-0.0025052
4.91	-3.0317	-0.33194	0.015778	-0.0046881
4.96	-2.9204	-0.31724	0.012078	-0.005928
5.01	-2.7667	-0.30349	0.010858	-0.0036322
5.06	-2.5972	-0.28695	0.010064	-0.0065269
5.11	-2.4165	-0.27968	0.010732	-0.0044116
5.15	-2.1854	-0.26808	0.0094394	-0.0041746
5.2	-1.9698	-0.24579	0.005304	-0.0024077
5.25	-1.7099	-0.21765	0.0027974	-0.003317
5.3	-1.4277	-0.18583	0.0011979	-0.0033175
5.35	-1.1072	-0.16095	-0.00090614	-0.0025215
5.4	-0.77531	-0.1192	-0.0023529	-0.0054118
5.45	-0.46042	-0.091981	-0.0047466	-0.0034338
5.5	-0.089692	-0.05392	-0.0055918	-0.0038658
5.55	0.29896	-0.023859	-0.0077028	-0.0024201
5.6	0.67381	0.01421	-0.0071523	-0.0031322
5.65	1.1303	0.05716	-0.0070805	-0.0030135
5.69	1.4933	0.097327	-0.0047055	-0.0026712
5.74	1.9525	0.12248	-0.0044593	-0.00054734
5.79	2.3787	0.17542	-0.0026946	-0.0023164
5.84	2.8373	0.22641	0.00051911	-0.0034962
5.89	3.2821	0.25885	0.0045954	0.00053281
5.94	3.7899	0.31944	0.0089148	-0.0027311
5.99	4.2436	0.35121	0.013772	0.0020949
6.04	4.7412	0.40814	0.020497	-0.0013383
6.09	5.2344	0.45523	0.025241	-0.00047956
6.14	5.7554	0.49858	0.034012	0.001012
6.19	6.2302	0.54951	0.043552	0.0018511
6.23	6.7263	0.59471	0.053959	0.0033278
