% Time() Angle(deg) Cn Ct Cm
0	0.63446	0.0080789	-0.0050851	-0.0023392
0.05	0.7524	0.0069738	-0.0057761	0.00072643
0.1	0.84933	0.026314	-0.0048502	-0.00037289
0.15	0.93819	0.028983	-0.0065851	0.00046389
0.2	0.98666	0.044411	-0.0069939	0.0012424
0.25	1.0723	0.046169	-0.0054705	0.00089098
0.29	1.1628	0.057351	-0.0051156	-0.00059294
0.34	1.2613	0.066906	-0.0053009	0.0010448
0.39	1.3389	0.082739	-0.0060384	0.00047272
0.44	1.4164	0.084832	-0.0044812	0.0026964
0.49	1.4746	0.11026	-0.0044059	-0.001308
0.54	1.5489	0.10809	-0.0053691	0.0013187
0.59	1.6135	0.11057	-0.004255	0.002052
0.64	1.6749	0.11512	-0.0030923	0.00029185
0.69	1.7169	0.11109	-0.0039924	0.0041621
0.74	1.7363	0.11939	-0.0027743	0.0027221
0.79	1.8106	0.11869	-0.0037308	0.0055661
0.83	1.8333	0.11753	-0.0032112	0.0053674
0.88	1.8139	0.12871	-0.0034797	0.005051
0.93	1.8397	0.13522	-0.0016191	0.0026271
0.98	1.8478	0.11835	-0.0025433	0.006892
1.03	1.8414	0.13807	-0.0037066	0.0025314
1.08	1.8704	0.13593	-0.0021099	0.003383
1.13	1.8494	0.1332	-0.0027034	0.0049346
1.18	1.8527	0.14307	-0.0034921	0.0046311
1.23	1.8607	0.1406	-0.0029867	0.0062268
1.28	1.8413	0.14331	-0.0012169	0.005505
1.33	1.83	0.1458	-0.0035382	0.0055325
1.37	1.8349	0.14495	-0.0021072	0.0051391
1.42	1.8187	0.1455	-0.0023911	0.0042341
1.47	1.8381	0.14896	-0.00066905	0.005153
1.52	1.8171	0.14806	-0.0016572	0.0052848
1.57	1.7735	0.14571	-0.0011922	0.0032234
1.62	1.7412	0.13303	-0.0033425	0.0085185
1.67	1.6927	0.1411	-0.0029232	0.00074691
1.72	1.6232	0.1198	-0.0029376	0.0082439
1.77	1.5748	0.11284	-0.0029482	0.010317
1.82	1.4956	0.11842	-0.0026883	0.0038224
1.87	1.4132	0.098335	-0.0039792	0.0072418
1.91	1.3211	0.090679	-0.004948	0.0071926
1.96	1.2242	0.095523	-0.0047239	0.0034692
2.01	1.1402	0.08149	-0.0047496	0.0063041
2.06	1.0384	0.080629	-0.0055962	0.0034669
2.11	0.94465	0.069049	-0.0051917	0.0047595
2.16	0.82025	0.058945	-0.005705	0.0076772
2.21	0.71039	0.05619	-0.0046678	0.0029531
2.26	0.5763	0.039749	-0.0055323	0.0056038
2.31	0.48906	0.030574	-0.0066923	0.0062261
2.36	0.3889	0.0096096	-0.0066454	0.0057272
2.41	0.26289	0.010266	-0.0058838	0.0064509
2.45	0.17566	0.0062088	-0.0072414	0.0041218
2.5	0.035128	-0.0098943	-0.0070986	0.0040012
2.55	-0.076326	-0.02182	-0.0071251	0.0048094
2.6	-0.20231	-0.037743	-0.0064076	0.0062146
2.65	-0.3186	-0.048241	-0.0068318	0.0058176
2.7	-0.4478	-0.055205	-0.0066969	0.0047501
2.75	-0.55116	-0.072378	-0.0060034	0.0041528
2.8	-0.70295	-0.080274	-0.0074547	0.0037315
2.85	-0.81436	-0.0975	-0.0062689	0.0054645
2.9	-0.93384	-0.10491	-0.0053742	0.0029934
2.95	-1.0598	-0.12256	-0.0045236	0.0034456
2.99	-1.1679	-0.12737	-0.0048623	0.0023453
3.04	-1.3181	-0.13236	-0.0045659	0.00060471
3.09	-1.4133	-0.14353	-0.0022701	0.0006278
3.14	-1.5198	-0.15398	-0.0028596	-0.00030444
3.19	-1.6344	-0.17044	-0.0024434	0.0026587
3.24	-1.7086	-0.17374	-0.0017125	-0.001039
3.29	-1.8296	-0.18263	-0.0015623	0.00072143
3.34	-1.9329	-0.18947	-0.0020518	-5.9994e-05
3.39	-2.0039	-0.19543	-8.3014e-06	1.9916e-05
3.44	-2.1136	-0.20713	0.00010235	0.00083289
3.49	-2.1652	-0.20911	0.0012088	-0.002043
3.53	-2.2474	-0.22534	0.0005115	0.00020523
3.58	-2.3248	-0.22903	0.0025988	-0.0010364
3.63	-2.3893	-0.22646	0.0017866	-0.0032829
3.68	-2.4119	-0.23466	0.0033158	-0.0035076
3.73	-2.4587	-0.23319	0.0029151	-0.0049654
3.78	-2.5151	-0.24999	0.0060665	0.0012056
3.83	-2.5812	-0.25138	0.0049452	-0.0015399
3.88	-2.5941	-0.25625	0.0053012	-0.0026672
3.93	-2.6457	-0.25694	0.0060712	-0.0040456
3.98	-2.6763	-0.2658	0.0068844	-0.0021983
4.03	-2.7038	-0.26687	0.0087681	-0.0035244
4.07	-2.7344	-0.27155	0.0066928	-0.00091939
4.12	-2.7924	-0.27464	0.0085339	-0.0020485
4.17	-2.8005	-0.28339	0.0088517	-0.0012896
4.22	-2.7892	-0.26989	0.0082036	-0.0062322
4.27	-2.7908	-0.2811	0.0085652	-0.0039903
4.32	-2.7956	-0.29042	0.0076199	0.00058686
4.37	-2.8118	-0.28235	0.0095641	-0.0050176
4.42	-2.8037	-0.29178	0.0095337	-0.0010853
4.47	-2.7892	-0.28422	0.0096752	-0.0029075
4.52	-2.7844	-0.28729	0.009804	-0.0052028
4.57	-2.7634	-0.29634	0.0093435	0.00013862
4.61	-2.7634	-0.28396	0.010087	-0.0034144
4.66	-2.7295	-0.28467	0.0095686	-0.0050398
4.71	-2.7134	-0.28358	0.0080179	-0.004921
4.76	-2.6635	-0.27675	0.0080541	-0.0056832
4.81	-2.6425	-0.27743	0.0090034	-0.005463
4.86	-2.5764	-0.27332	0.008071	-0.0050119
4.91	-2.4958	-0.26327	0.0051642	-0.0053572
4.96	-2.4555	-0.25281	0.0071169	-0.0061601
5.01	-2.3829	-0.24755	0.0065033	-0.0065281
5.06	-2.2958	-0.23961	0.0057195	-0.0063484
5.11	-2.1652	-0.23611	0.0044194	-0.0045847
5.15	-2.099	-0.23005	0.0045105	-0.0052192
5.2	-2.0184	-0.22217	0.0037105	-0.00394
5.25	-1.8764	-0.20632	0.001941	-0.0037681
5.3	-1.7457	-0.2029	0.0021922	-0.004152
5.35	-1.6392	-0.18971	0.001054	-0.0043575
5.4	-1.5279	-0.18625	0.0014772	-0.0043744
5.45	-1.4343	-0.16631	-0.0010078	-0.0073654
5.5	-1.2971	-0.16443	-0.00056912	-0.0048387
5.55	-1.1938	-0.15364	-0.0011934	-0.0033387
5.6	-1.1001	-0.14004	-0.0020829	-0.0062433
5.65	-0.97744	-0.12968	-0.0007169	-0.0041436
5.69	-0.86442	-0.12335	-0.0024353	-0.0028032
5.74	-0.73686	-0.10641	-0.0041899	-0.0059984
5.79	-0.60606	-0.10496	-0.0033232	-0.0042746
5.84	-0.50433	-0.096275	-0.0034951	-0.0031618
5.89	-0.38804	-0.074822	-0.0042519	-0.0055567
5.94	-0.27176	-0.065022	-0.0048119	-0.0036649
5.99	-0.14416	-0.050502	-0.0041209	-0.0046124
6.04	0.012514	-0.037625	-0.0067093	-0.0058837
6.09	0.12235	-0.03286	-0.0071411	-0.0036482
6.14	0.25158	-0.024736	-0.0059977	-0.0017839
6.19	0.38567	-0.0085613	-0.0051614	-0.0036323
6.23	0.44383	0.0023555	-0.0060294	-0.0030784
