% Time() Angle(deg) Cn Ct Cm
0	0.86064	0.019213	-0.0060757	-0.002886
0.05	1.1191	0.039092	-0.005947	-0.0015725
0.1	1.3873	0.071873	-0.0055649	-0.0023471
0.15	1.6216	0.10195	-0.0057878	-0.0044336
0.2	1.8446	0.12399	-0.0032762	-0.0051309
0.25	2.0546	0.13573	-0.0024489	-0.00013513
0.29	2.2614	0.15622	-0.0018898	6.8822e-05
0.34	2.4585	0.18744	-0.00073991	-0.00081897
0.39	2.6895	0.20574	0.00062014	0.0012495
0.44	2.8849	0.22686	0.0021485	-0.0012982
0.49	3.0836	0.24193	0.004343	0.0013648
0.54	3.2564	0.26237	0.0061631	0.0020866
0.59	3.4453	0.27937	0.0062528	0.0038845
0.64	3.5712	0.29476	0.0094253	0.0036692
0.69	3.7133	0.32246	0.01025	0.0026777
0.74	3.8053	0.31975	0.011812	0.0036951
0.79	3.9345	0.3363	0.014233	0.0038225
0.83	4.0329	0.34002	0.015174	0.0062684
0.88	4.1169	0.36011	0.016381	0.0047542
0.93	4.2315	0.36397	0.016298	0.0056696
0.98	4.3218	0.37223	0.018243	0.0076147
1.03	4.4041	0.37564	0.020867	0.008789
1.08	4.4412	0.38987	0.021618	0.0050939
1.13	4.4735	0.38809	0.021682	0.0070161
1.18	4.5074	0.39621	0.021833	0.0069897
1.23	4.5429	0.40218	0.022697	0.0049611
1.28	4.53	0.39956	0.023125	0.0069307
1.33	4.5203	0.41098	0.023194	0.0038292
1.37	4.538	0.40815	0.024273	0.0057162
1.42	4.5606	0.40592	0.023869	0.0072071
1.47	4.5477	0.39926	0.022639	0.0075172
1.52	4.5155	0.40459	0.023801	0.0059141
1.57	4.5122	0.4067	0.025503	0.0063926
1.62	4.4864	0.40433	0.025198	0.0050538
1.67	4.4186	0.39541	0.025084	0.0081934
1.72	4.3493	0.39024	0.023313	0.0093592
1.77	4.2573	0.38386	0.0226	0.01076
1.82	4.1556	0.37486	0.021798	0.0093299
1.87	4.0313	0.36779	0.020858	0.010336
1.91	3.8635	0.36601	0.017931	0.0085946
1.96	3.7634	0.34746	0.017346	0.010222
2.01	3.631	0.33266	0.015712	0.010921
2.06	3.4937	0.32829	0.013077	0.0063657
2.11	3.321	0.30154	0.011915	0.012553
2.16	3.0803	0.29153	0.010883	0.0088501
2.21	2.9398	0.27994	0.0090603	0.0073084
2.26	2.7234	0.26118	0.0066914	0.0068555
2.31	2.4698	0.24268	0.0065874	0.009463
2.36	2.2969	0.21543	0.00423	0.0097787
2.41	2.0288	0.20323	0.0017376	0.0079411
2.45	1.8139	0.18028	0.00046515	0.0078363
2.5	1.6055	0.15478	0.00014322	0.0085684
2.55	1.3728	0.14089	-0.0025816	0.0063958
2.6	1.0998	0.11708	-0.0032402	0.0059507
2.65	0.88972	0.089371	-0.0049879	0.0060455
2.7	0.60861	0.064439	-0.0037104	0.0075923
2.75	0.39536	0.055902	-0.004736	0.0043952
2.8	0.15466	0.024761	-0.0060909	0.0056449
2.85	-0.11509	-0.005318	-0.0054251	0.0066702
2.9	-0.34605	-0.017604	-0.0058435	0.0053167
2.95	-0.59637	-0.044328	-0.0055607	0.0044895
2.99	-0.83536	-0.06408	-0.0046355	0.0044998
3.04	-1.0791	-0.090407	-0.0058822	0.0037649
3.09	-1.2987	-0.11298	-0.005071	0.0026402
3.14	-1.5359	-0.14428	-0.0032868	0.0036613
3.19	-1.7893	-0.16675	-0.0027503	0.0037868
3.24	-2.0071	-0.18445	-0.00173	0.0034944
3.29	-2.2426	-0.20037	0.0012144	0.0027658
3.34	-2.4619	-0.22547	0.0012575	0.0018043
3.39	-2.6973	-0.25853	0.0030916	0.0057092
3.44	-2.8891	-0.27554	0.0057369	0.0032751
3.49	-3.1067	-0.29365	0.0073078	0.0011737
3.53	-3.3242	-0.31756	0.0095604	0.0030451
3.58	-3.4836	-0.3349	0.0097747	0.0007003
3.63	-3.664	-0.3506	0.01288	0.001907
3.68	-3.8411	-0.36812	0.015533	0.00021125
3.73	-4.0053	-0.38325	0.018241	-0.00028226
3.78	-4.1662	-0.40117	0.02116	-0.00030349
3.83	-4.3013	-0.41422	0.02322	-0.0027916
3.88	-4.4219	-0.43552	0.025729	0.00064826
3.93	-4.5635	-0.43616	0.028404	-0.0053537
3.98	-4.6776	-0.4546	0.029774	-0.0026626
4.02	-4.7499	-0.46142	0.032523	-0.0041627
4.07	-4.856	-0.46397	0.0333	-0.0046735
4.12	-4.9412	-0.48875	0.034322	-0.0017259
4.17	-4.9974	-0.48632	0.036959	-0.0040212
4.22	-5.0569	-0.48934	0.036981	-0.0050355
4.27	-5.1083	-0.5042	0.039627	-0.0034637
4.32	-5.1501	-0.50852	0.040737	-0.0021761
4.37	-5.1934	-0.50773	0.041414	-0.0060785
4.42	-5.1902	-0.515	0.043067	-0.0045926
4.47	-5.2448	-0.51177	0.042575	-0.0072301
4.52	-5.2256	-0.52124	0.044207	-0.0057722
4.56	-5.2384	-0.52704	0.045425	-0.0066723
4.61	-5.2159	-0.51885	0.045531	-0.0091208
4.66	-5.2159	-0.52032	0.046005	-0.009202
4.71	-5.1902	-0.52494	0.046589	-0.0082503
4.76	-5.179	-0.52302	0.04615	-0.0070087
4.81	-5.1886	-0.53028	0.045872	-0.0055942
4.86	-5.1083	-0.51085	0.044746	-0.0093361
4.91	-5.0601	-0.50066	0.04521	-0.0089213
4.96	-4.9541	-0.49519	0.042338	-0.01021
5.01	-4.8528	-0.4939	0.040024	-0.0079664
5.06	-4.7307	-0.47781	0.039124	-0.0079957
5.1	-4.5458	-0.46598	0.037294	-0.0094743
5.15	-4.3849	-0.45269	0.034971	-0.0092129
5.2	-4.1871	-0.43468	0.03285	-0.0093228
5.25	-4.0165	-0.42555	0.028779	-0.0070983
5.3	-3.8169	-0.40935	0.028225	-0.0097199
5.35	-3.6382	-0.39319	0.025069	-0.0089986
5.4	-3.4434	-0.38217	0.024277	-0.0074509
5.45	-3.2533	-0.36207	0.021864	-0.0087566
5.5	-3.0745	-0.33535	0.018329	-0.012545
5.55	-2.8617	-0.31941	0.016154	-0.010583
5.6	-2.6199	-0.29761	0.013709	-0.010127
5.64	-2.3926	-0.27058	0.011104	-0.010613
5.69	-2.1378	-0.2591	0.0077836	-0.0076861
5.74	-1.9071	-0.23991	0.0046186	-0.0026908
5.79	-1.6425	-0.2092	0.0057391	-0.0057011
5.84	-1.3584	-0.19392	0.0025382	-0.0056981
5.89	-1.1082	-0.16664	0.00099816	-0.0034456
5.94	-0.86765	-0.15011	-0.00088421	-0.0029387
5.99	-0.61898	-0.12309	-0.0022985	-0.0037371
6.04	-0.42034	-0.10392	-0.003771	-0.0031958
6.09	-0.18777	-0.078972	-0.0045665	-0.0049897
6.14	0.069049	-0.05096	-0.005179	-0.0049713
6.18	0.33074	-0.026185	-0.0050157	-0.0043396
6.23	0.56337	0.0018758	-0.0049193	-0.0058959
