% Time() Angle(deg) Cn Ct Cm
0	9.7716	0.8646	0.10589	-0.008324
0.05	10.153	0.89601	0.11856	-0.0038028
0.1	10.573	0.93177	0.12826	-0.0049553
0.15	10.952	0.97199	0.1433	-0.0050531
0.2	11.365	0.99562	0.15219	-0.0052986
0.25	11.747	1.0356	0.16463	-0.0067149
0.29	12.138	1.0558	0.17615	-0.00349
0.34	12.504	1.0868	0.18808	-0.00043283
0.39	12.854	1.117	0.20109	-0.0016416
0.44	13.208	1.1485	0.21434	0.0017713
0.49	13.532	1.1626	0.22834	0.0045648
0.54	13.861	1.1989	0.24134	0.0030046
0.59	14.157	1.2221	0.25335	0.00097063
0.64	14.439	1.2427	0.26863	0.0074997
0.69	14.749	1.2602	0.27583	0.0061917
0.74	14.985	1.2826	0.28939	0.006508
0.79	15.263	1.2961	0.30063	0.0094587
0.83	15.518	1.3131	0.3088	0.0097431
0.88	15.71	1.3326	0.32072	0.0091236
0.93	15.892	1.3403	0.33062	0.012429
0.98	16.076	1.3634	0.33901	0.010669
1.03	16.219	1.3669	0.34734	0.011667
1.08	16.345	1.3647	0.35668	0.016025
1.13	16.447	1.381	0.3619	0.012115
1.18	16.584	1.3757	0.36677	0.015679
1.23	16.643	1.3754	0.37128	0.016667
1.28	16.669	1.3721	0.37559	0.018231
1.33	16.682	1.3696	0.37799	0.020084
1.37	16.661	1.3693	0.37538	0.015881
1.42	16.672	1.3629	0.37762	0.017716
1.47	16.648	1.3557	0.37423	0.015042
1.52	16.624	1.3509	0.37683	0.016351
1.57	16.548	1.3549	0.37463	0.015466
1.62	16.497	1.3503	0.37165	0.015289
1.67	16.405	1.3279	0.36821	0.017369
1.72	16.316	1.3053	0.36383	0.018724
1.77	16.184	1.297	0.35647	0.016602
1.82	16.05	1.2786	0.34886	0.016048
1.87	15.911	1.2569	0.33866	0.017319
1.91	15.74	1.2177	0.33166	0.023621
1.96	15.557	1.1974	0.32312	0.02274
2.01	15.348	1.1767	0.31361	0.024593
2.06	15.14	1.1495	0.30144	0.024483
2.11	14.884	1.1286	0.29172	0.025543
2.16	14.641	1.0989	0.27942	0.027531
2.21	14.362	1.0659	0.2714	0.029732
2.26	14.065	1.0466	0.25859	0.03084
2.31	13.748	1.0131	0.24977	0.03681
2.36	13.435	0.98964	0.24042	0.037903
2.41	13.123	0.95742	0.22734	0.038914
2.45	12.796	0.92452	0.22302	0.046578
2.5	12.437	0.87749	0.2071	0.050135
2.55	12.082	0.85573	0.19622	0.05055
2.6	11.703	0.83819	0.18847	0.050161
2.65	11.406	0.80603	0.17917	0.052392
2.7	11.018	0.77971	0.16786	0.053896
2.75	10.652	0.7492	0.16174	0.05599
2.8	10.29	0.72816	0.15221	0.054798
2.85	9.9138	0.71359	0.14321	0.052794
2.9	9.5196	0.67614	0.13158	0.054301
2.95	9.1706	0.65587	0.1223	0.055836
2.99	8.7685	0.62378	0.1134	0.054738
3.04	8.3697	0.60113	0.10627	0.054626
3.09	7.9695	0.58238	0.098187	0.054778
3.14	7.5807	0.55573	0.090731	0.057174
3.19	7.1856	0.53719	0.083114	0.055106
3.24	6.7698	0.5084	0.075993	0.054545
3.29	6.4057	0.5057	0.068323	0.047557
3.34	6.0306	0.46544	0.062151	0.052082
3.39	5.6589	0.45106	0.056042	0.046219
3.44	5.2923	0.4355	0.050059	0.043227
3.49	4.9243	0.40804	0.044541	0.042661
3.53	4.579	0.39429	0.038036	0.037441
3.58	4.2244	0.37907	0.033198	0.034142
3.63	3.8892	0.35342	0.030975	0.031646
3.68	3.5351	0.32829	0.025504	0.029312
3.73	3.2485	0.30673	0.021571	0.027391
3.78	2.9349	0.29213	0.016991	0.023481
3.83	2.6695	0.27536	0.014361	0.018877
3.88	2.3946	0.25946	0.011484	0.019133
3.93	2.1312	0.23337	0.008411	0.020046
3.98	1.9142	0.23678	0.0069179	0.012705
4.02	1.7037	0.20813	0.0059599	0.014628
4.07	1.4981	0.19989	0.0027341	0.0090592
4.12	1.3101	0.16743	0.002144	0.013655
4.17	1.1541	0.16358	0.001153	0.0090964
4.22	0.995	0.15223	-0.00051859	0.010777
4.27	0.87571	0.15011	-0.0011436	0.0047611
4.32	0.77395	0.12693	-0.0029624	0.007227
4.37	0.68334	0.1248	-0.0039932	0.0033092
4.42	0.65632	0.12273	-0.0037849	0.0024883
4.47	0.5737	0.11855	-0.0031783	0.001604
4.52	0.53398	0.1075	-0.0028993	0.0029689
4.56	0.55304	0.11446	-0.0044525	0.0014806
4.61	0.5737	0.11253	-0.0058403	0.0011564
4.66	0.57846	0.11603	-0.0044379	-0.0020143
4.71	0.61501	0.11028	-0.0041315	-0.0016456
4.76	0.67698	0.11384	-0.0049535	-0.00013162
4.81	0.72943	0.10643	-0.0052194	0.00089954
4.86	0.83436	0.12189	-0.0045869	-0.0017223
4.91	0.88366	0.11425	-0.0035112	-0.00048827
4.96	1.0825	0.12998	-0.0043368	-0.0015413
5.01	1.2258	0.14637	-0.0043394	-0.0046701
5.06	1.3436	0.16476	-0.0029442	-0.0080035
5.1	1.5188	0.17729	-0.0044743	-0.0062162
5.15	1.7404	0.20488	-0.0022203	-0.010841
5.2	1.9525	0.21621	-0.0018658	-0.0084605
5.25	2.1966	0.23923	-0.00033461	-0.0082748
5.3	2.4122	0.25213	0.0016157	-0.0086914
5.35	2.6711	0.26925	0.0011823	-0.0085326
5.4	2.9797	0.29575	0.0036725	-0.0099071
5.45	3.2469	0.3244	0.0052794	-0.011589
5.5	3.5848	0.34139	0.0084411	-0.01009
5.55	3.9117	0.3685	0.00985	-0.0073294
5.6	4.2148	0.39757	0.013767	-0.0094048
5.64	4.5967	0.43984	0.016482	-0.011519
5.69	4.9227	0.45103	0.021587	-0.0080467
5.74	5.3003	0.47957	0.025442	-0.0073045
5.79	5.6589	0.51592	0.030558	-0.0081504
5.84	5.9968	0.54544	0.035397	-0.007437
5.89	6.3703	0.58204	0.039664	-0.011988
5.94	6.7408	0.61907	0.046667	-0.010819
5.99	7.1292	0.63777	0.050798	-0.0083358
6.04	7.542	0.6746	0.057909	-0.0088502
6.09	7.942	0.72224	0.065647	-0.010311
6.14	8.3407	0.75295	0.074019	-0.0092434
6.18	8.7524	0.78433	0.083103	-0.010148
6.23	9.1674	0.82219	0.091442	-0.0089447
