% Time() Angle(deg) Cn Ct Cm
0	15.253	1.2945	0.31724	0.015119
0.05	15.645	1.3192	0.3282	0.013467
0.1	16.019	1.3374	0.34168	0.011325
0.15	16.414	1.3566	0.35517	0.013045
0.2	16.821	1.3797	0.36882	0.0084527
0.25	17.13	1.3867	0.37958	0.0062873
0.29	17.532	1.4102	0.39176	0.001292
0.34	17.884	1.435	0.39829	-0.0080162
0.39	18.262	1.4467	0.40108	-0.016631
0.44	18.572	1.4422	0.4057	-0.01943
0.49	18.911	1.4588	0.40482	-0.031923
0.54	19.23	1.4584	0.39645	-0.04657
0.59	19.537	1.4753	0.38115	-0.066857
0.64	19.849	1.4737	0.35212	-0.088161
0.69	20.12	1.4708	0.31432	-0.11554
0.74	20.371	1.4468	0.26305	-0.14507
0.79	20.681	1.397	0.20997	-0.16303
0.83	20.899	1.3432	0.15654	-0.18446
0.88	21.135	1.2563	0.12102	-0.17912
0.93	21.352	1.1914	0.10678	-0.16592
0.98	21.601	1.0886	0.12467	-0.11719
1.03	21.784	1.1007	0.15552	-0.09643
1.08	22.039	1.1737	0.18665	-0.10258
1.13	22.141	1.2092	0.20659	-0.10782
1.18	22.289	1.194	0.21678	-0.098586
1.23	22.401	1.1421	0.21158	-0.090522
1.28	22.471	1.1196	0.20178	-0.085096
1.33	22.534	1.099	0.19582	-0.082667
1.37	22.622	1.0576	0.1873	-0.071416
1.42	22.709	1.0379	0.1794	-0.068673
1.47	22.735	1.0157	0.17553	-0.062016
1.52	22.762	0.99429	0.16953	-0.05888
1.57	22.766	0.96539	0.16821	-0.051652
1.62	22.755	0.93408	0.16156	-0.049052
1.67	22.73	0.91258	0.15672	-0.048857
1.72	22.736	0.89439	0.15802	-0.042459
1.77	22.719	0.88665	0.15795	-0.039555
1.82	22.646	0.88448	0.15958	-0.034586
1.87	22.557	0.87792	0.1602	-0.030693
1.91	22.409	0.8784	0.16004	-0.029147
1.96	22.286	0.89046	0.16185	-0.029154
2.01	22.086	0.89372	0.16426	-0.026363
2.06	21.923	0.87777	0.16641	-0.020875
2.11	21.73	0.87266	0.16465	-0.021081
2.16	21.518	0.85744	0.16234	-0.019218
2.21	21.298	0.83578	0.1607	-0.01516
2.26	21.017	0.81518	0.15612	-0.01353
2.31	20.753	0.80789	0.15386	-0.010685
2.36	20.427	0.79608	0.15242	-0.0094049
2.41	20.171	0.7988	0.1567	-0.0029477
2.45	19.881	0.8012	0.16077	0.0013245
2.5	19.55	0.80008	0.16111	0.0069335
2.55	19.227	0.79734	0.16078	0.0087901
2.6	18.921	0.79222	0.16141	0.0079936
2.65	18.537	0.77513	0.16242	0.017021
2.7	18.187	0.77075	0.16558	0.021431
2.75	17.825	0.77276	0.16614	0.020669
2.8	17.468	0.77238	0.16193	0.019011
2.85	17.088	0.7566	0.16642	0.029884
2.9	16.742	0.77064	0.16471	0.028648
2.95	16.373	0.80209	0.16546	0.023808
2.99	15.979	0.78492	0.16252	0.025613
3.04	15.611	0.78742	0.16429	0.030145
3.09	15.198	0.79186	0.16361	0.030075
3.14	14.803	0.79328	0.16168	0.028348
3.19	14.431	0.78474	0.16004	0.031481
3.24	14.029	0.77482	0.15949	0.037377
3.29	13.633	0.78325	0.16103	0.03696
3.34	13.275	0.78541	0.16075	0.038927
3.39	12.874	0.77565	0.15831	0.043887
3.44	12.505	0.78254	0.15763	0.043907
3.49	12.14	0.78119	0.15559	0.046676
3.53	11.773	0.78373	0.15094	0.042457
3.58	11.466	0.77211	0.14882	0.046818
3.63	11.082	0.77785	0.1438	0.042029
3.68	10.787	0.7825	0.14084	0.039853
3.73	10.452	0.77748	0.1387	0.039529
3.78	10.147	0.77957	0.13489	0.039683
3.83	9.8557	0.7877	0.13301	0.035172
3.88	9.5971	0.78979	0.12611	0.029706
3.93	9.3338	0.78485	0.12409	0.029167
3.98	9.0398	0.77293	0.11818	0.029741
4.03	8.8089	0.77174	0.11408	0.023536
4.07	8.5796	0.75433	0.1129	0.025636
4.12	8.3616	0.75006	0.10672	0.021237
4.17	8.1922	0.73819	0.10232	0.018826
4.22	8.0066	0.72564	0.097142	0.01626
4.27	7.8565	0.70949	0.093489	0.018554
4.32	7.7178	0.70953	0.090092	0.015401
4.37	7.5871	0.70648	0.088639	0.017998
4.42	7.4984	0.70433	0.087443	0.013416
4.47	7.3888	0.69961	0.085404	0.013325
4.52	7.3404	0.69898	0.083743	0.012221
4.57	7.2888	0.67813	0.081428	0.01169
4.61	7.2307	0.6672	0.080271	0.015648
4.66	7.1888	0.67402	0.07944	0.010867
4.71	7.1792	0.67032	0.077465	0.011529
4.76	7.184	0.66974	0.077404	0.0099417
4.81	7.192	0.66436	0.078162	0.013043
4.86	7.2114	0.66715	0.078489	0.013943
4.91	7.1469	0.68128	0.079345	0.012603
4.96	7.2243	0.69389	0.081725	0.0095018
5.01	7.321	0.70247	0.084073	0.0099341
5.06	7.45	0.7101	0.083369	0.0094626
5.11	7.5823	0.72423	0.085728	0.0093945
5.15	7.7629	0.73236	0.089324	0.0095327
5.2	7.9485	0.74078	0.09466	0.0081273
5.25	8.1276	0.7518	0.096757	0.011696
5.3	8.3277	0.77758	0.10209	0.0078004
5.35	8.557	0.79001	0.10439	0.0090636
5.4	8.7959	0.82312	0.10994	0.0048746
5.45	9.1012	0.84464	0.11768	0.0064748
5.5	9.4065	0.85722	0.12426	0.0092021
5.55	9.7119	0.88122	0.13266	0.0086464
5.6	10.032	0.90241	0.14236	0.011631
5.65	10.303	0.92465	0.15096	0.011128
5.69	10.675	0.9513	0.15899	0.010713
5.74	10.99	0.97697	0.16963	0.010989
5.79	11.336	1.0204	0.18159	0.0092582
5.84	11.674	1.0495	0.19278	0.010568
5.89	12.083	1.0847	0.20707	0.011643
5.94	12.457	1.1056	0.21902	0.012031
5.99	12.82	1.1356	0.23405	0.015356
6.04	13.245	1.1731	0.24769	0.011847
6.09	13.607	1.1862	0.25831	0.013413
6.14	14.007	1.2198	0.27552	0.014631
6.19	14.404	1.2476	0.28812	0.012891
6.23	14.791	1.2766	0.30159	0.011841
