% Time() Angle(deg) Cn Ct Cm
0	18.911	1.5334	0.39826	-0.014078
0.05	19.317	1.581	0.42675	-0.014412
0.1	19.705	1.6474	0.45319	-0.018328
0.15	20.123	1.6919	0.47989	-0.02077
0.2	20.536	1.7454	0.50321	-0.026763
0.25	20.915	1.7868	0.52267	-0.034219
0.29	21.403	1.8022	0.54439	-0.033979
0.34	21.786	1.8303	0.55965	-0.04345
0.39	22.164	1.8331	0.56946	-0.050184
0.44	22.619	1.844	0.58177	-0.057873
0.49	23.01	1.8601	0.58976	-0.064527
0.54	23.441	1.8651	0.59515	-0.075992
0.59	23.852	1.8709	0.60246	-0.084826
0.64	24.252	1.8783	0.60412	-0.10004
0.69	24.647	1.8915	0.60519	-0.11344
0.74	25.037	1.9226	0.60453	-0.13176
0.79	25.434	1.934	0.59814	-0.15242
0.83	25.789	1.9691	0.58588	-0.17688
0.88	26.144	1.9999	0.56854	-0.1983
0.93	26.45	2.0549	0.53347	-0.23476
0.98	26.779	2.1176	0.49306	-0.27596
1.03	27.071	2.1948	0.44265	-0.32593
1.08	27.323	2.2381	0.38936	-0.36215
1.13	27.615	2.3129	0.33968	-0.40607
1.18	27.812	2.3591	0.27225	-0.44636
1.23	28.024	2.4102	0.22381	-0.46059
1.28	28.201	2.39	0.15509	-0.47706
1.33	28.368	2.3654	0.090608	-0.48401
1.37	28.49	2.2601	0.012063	-0.48438
1.42	28.584	2.2443	-0.039609	-0.47841
1.47	28.667	2.1706	-0.10143	-0.47756
1.52	28.749	2.0662	-0.15661	-0.46806
1.57	28.791	1.9433	-0.1919	-0.45297
1.62	28.829	1.8607	-0.22772	-0.46213
1.67	28.852	1.8062	-0.2654	-0.4883
1.72	28.861	1.744	-0.28859	-0.50805
1.77	28.878	1.7577	-0.30792	-0.54317
1.82	28.86	1.7337	-0.31689	-0.55481
1.87	28.838	1.7476	-0.32307	-0.5694
1.91	28.847	1.7086	-0.31313	-0.54027
1.96	28.829	1.6603	-0.28451	-0.49418
2.01	28.796	1.5876	-0.23875	-0.43637
2.06	28.749	1.4839	-0.18858	-0.35971
2.11	28.709	1.407	-0.13346	-0.27959
2.16	28.58	1.4134	-0.088679	-0.24598
2.21	28.49	1.4194	-0.048119	-0.20518
2.26	28.341	1.399	-0.0070118	-0.16308
2.31	28.149	1.3648	0.024848	-0.12959
2.36	27.94	1.3831	0.047051	-0.10116
2.41	27.717	1.3964	0.057757	-0.087812
2.45	27.465	1.4594	0.061417	-0.10277
2.5	27.193	1.5153	0.059916	-0.11614
2.55	26.94	1.5739	0.053332	-0.12646
2.6	26.599	1.6037	0.047626	-0.14659
2.65	26.251	1.6232	0.034095	-0.16989
2.7	25.896	1.6183	0.0222	-0.18266
2.75	25.578	1.5948	0.011124	-0.19961
2.8	25.202	1.5847	0.0016707	-0.21843
2.85	24.795	1.5591	-0.010333	-0.23059
2.9	24.367	1.5272	-0.027364	-0.2458
2.95	23.937	1.4826	-0.045339	-0.25436
2.99	23.533	1.3979	-0.060304	-0.23918
3.04	23.083	1.2906	-0.068194	-0.21785
3.09	22.685	1.1923	-0.078621	-0.19407
3.14	22.253	1.128	-0.086487	-0.17284
3.19	21.848	1.0828	-0.094701	-0.15777
3.24	21.426	1.0335	-0.094691	-0.1505
3.29	21.027	0.99408	-0.091527	-0.13934
3.34	20.635	0.9282	-0.074728	-0.11533
3.39	20.248	0.91415	-0.066435	-0.10985
3.44	19.889	0.83953	-0.054639	-0.08552
3.49	19.538	0.80617	-0.043132	-0.071234
3.53	19.222	0.74455	-0.036366	-0.061822
3.58	18.865	0.73064	-0.025243	-0.056017
3.63	18.508	0.67988	-0.013179	-0.037696
3.68	18.179	0.64072	-0.0068594	-0.032132
3.73	17.838	0.61724	-0.0015955	-0.02547
3.78	17.503	0.59211	0.0025657	-0.017049
3.83	17.133	0.58478	0.0037931	-0.016751
3.88	16.798	0.56381	0.0056104	-0.018246
3.93	16.503	0.52945	0.0064929	-0.013022
3.98	16.132	0.49101	0.0075619	-0.0094098
4.03	15.819	0.50352	0.0098778	-0.012588
4.07	15.486	0.46176	0.010829	-0.008452
4.12	15.182	0.44728	0.012865	-0.0073779
4.17	14.861	0.41735	0.015089	0.0013406
4.22	14.577	0.37169	0.019609	0.016237
4.27	14.286	0.36974	0.022039	0.020979
4.32	14.039	0.36092	0.026934	0.029099
4.37	13.805	0.36953	0.035561	0.033936
4.42	13.583	0.39602	0.041791	0.035454
4.47	13.412	0.42076	0.050366	0.038382
4.52	13.233	0.46552	0.056252	0.032162
4.57	13.089	0.50106	0.063068	0.03547
4.61	12.929	0.53322	0.071886	0.035664
4.66	12.828	0.58748	0.080909	0.033806
4.71	12.759	0.63383	0.083845	0.031558
4.76	12.67	0.66824	0.094387	0.039394
4.81	12.646	0.71693	0.10704	0.042815
4.86	12.659	0.74905	0.1132	0.044683
4.91	12.657	0.80746	0.12233	0.038562
4.96	12.644	0.85028	0.1302	0.037991
5.01	12.702	0.8981	0.13556	0.031868
5.06	12.743	0.92202	0.14287	0.029625
5.11	12.788	0.93183	0.15078	0.035489
5.15	12.843	0.94128	0.15743	0.038115
5.2	12.945	0.94474	0.1607	0.035659
5.25	13.021	0.95822	0.16601	0.036137
5.3	13.144	0.98588	0.17003	0.027531
5.35	13.284	0.96675	0.1718	0.029918
5.4	13.417	0.97997	0.1768	0.024893
5.45	13.599	0.98474	0.17744	0.02068
5.5	13.798	0.99719	0.18205	0.015271
5.55	14.013	0.99517	0.18389	0.012373
5.6	14.247	0.99335	0.18936	0.013074
5.64	14.462	1.0032	0.19568	0.012314
5.69	14.748	1.0075	0.20074	0.010915
5.74	15.006	1.0302	0.20788	0.0073773
5.79	15.274	1.0584	0.21522	0.0040381
5.84	15.579	1.0894	0.22787	0.0011139
5.89	15.89	1.1087	0.23935	0.0031192
5.94	16.176	1.1405	0.25165	-0.00010605
5.99	16.56	1.1836	0.2669	-0.001987
6.04	16.89	1.2166	0.28317	-0.00025099
6.09	17.267	1.2553	0.30093	0.0017201
6.14	17.603	1.3204	0.32083	-0.0065664
6.18	17.992	1.3655	0.34398	-0.0058857
6.23	18.372	1.4282	0.36777	-0.01006
