% Time() Angle(deg) Cn Ct Cm
0	15.045	1.3213	0.28851	-0.0034529
0.05	15.468	1.344	0.3026	-0.0027764
0.1	15.86	1.3781	0.319	-0.0053691
0.15	16.253	1.4052	0.33673	-0.0023862
0.2	16.706	1.4458	0.35275	-0.0052658
0.25	17.051	1.4564	0.36831	-0.0028182
0.29	17.465	1.4837	0.3849	-0.0042322
0.34	17.828	1.5008	0.40224	-0.0021413
0.39	18.187	1.5431	0.41887	-0.0043687
0.44	18.553	1.5659	0.43399	-0.0072482
0.49	18.893	1.5982	0.45287	-0.0086962
0.54	19.218	1.6129	0.4689	-0.0087793
0.59	19.535	1.6416	0.48376	-0.013591
0.64	19.843	1.664	0.49933	-0.014654
0.69	20.115	1.6784	0.51179	-0.019027
0.74	20.398	1.7086	0.52306	-0.023801
0.79	20.677	1.7195	0.53317	-0.026514
0.83	20.921	1.7295	0.53811	-0.03456
0.88	21.14	1.7299	0.54425	-0.044273
0.93	21.355	1.7434	0.54586	-0.052185
0.98	21.59	1.7555	0.54722	-0.061816
1.03	21.757	1.7567	0.54281	-0.073984
1.08	21.917	1.7612	0.5299	-0.088733
1.13	22.068	1.7565	0.52037	-0.10372
1.18	22.133	1.7446	0.50574	-0.11145
1.23	22.226	1.7396	0.47871	-0.1285
1.28	22.305	1.7406	0.44845	-0.15304
1.33	22.324	1.7408	0.40943	-0.17704
1.37	22.329	1.7277	0.36626	-0.19561
1.42	22.312	1.693	0.32154	-0.20867
1.47	22.286	1.644	0.27308	-0.22165
1.52	22.245	1.5994	0.22734	-0.23413
1.57	22.207	1.5222	0.18717	-0.23425
1.62	22.092	1.4383	0.15149	-0.23177
1.67	22.039	1.3324	0.12971	-0.20504
1.72	21.963	1.2348	0.10632	-0.1886
1.77	21.851	1.1285	0.082166	-0.17571
1.82	21.745	1.0529	0.068134	-0.15581
1.87	21.592	0.98513	0.059649	-0.13358
1.91	21.448	0.95176	0.057738	-0.12257
1.96	21.295	0.92777	0.066131	-0.10514
2.01	21.103	0.90376	0.07442	-0.089407
2.06	20.915	0.88837	0.084204	-0.074011
2.11	20.741	0.87093	0.088911	-0.061366
2.16	20.486	0.87347	0.10183	-0.047827
2.21	20.238	0.88178	0.11429	-0.042331
2.26	19.99	0.89749	0.1273	-0.040474
2.31	19.673	0.93301	0.1304	-0.051376
2.36	19.4	0.94831	0.13294	-0.057118
2.41	19.123	0.92878	0.13218	-0.053093
2.45	18.77	0.87332	0.13149	-0.039875
2.5	18.449	0.8432	0.12682	-0.033134
2.55	18.093	0.8048	0.12565	-0.020644
2.6	17.775	0.77663	0.1262	-0.014319
2.65	17.394	0.76475	0.12176	-0.011142
2.7	17.003	0.7357	0.12134	-0.0030456
2.75	16.658	0.70754	0.1173	0.0023311
2.8	16.248	0.69062	0.11533	0.01102
2.85	15.881	0.66952	0.11486	0.019968
2.9	15.494	0.65059	0.11166	0.027629
2.95	15.116	0.64104	0.11542	0.032966
2.99	14.706	0.60954	0.11042	0.039113
3.04	14.328	0.6087	0.1069	0.042709
3.09	13.982	0.58678	0.10563	0.045758
3.14	13.569	0.56456	0.10281	0.052085
3.19	13.171	0.54371	0.099935	0.057767
3.24	12.775	0.53453	0.097943	0.058562
3.29	12.395	0.53296	0.094837	0.057957
3.34	12.007	0.50358	0.092343	0.065457
3.39	11.624	0.48898	0.090495	0.065823
3.44	11.288	0.47239	0.086355	0.064995
3.49	10.888	0.46266	0.083666	0.064746
3.53	10.557	0.45514	0.078041	0.063839
3.58	10.189	0.43995	0.076003	0.065607
3.63	9.8654	0.44971	0.075806	0.064313
3.68	9.5002	0.43182	0.069509	0.063391
3.73	9.1771	0.43412	0.06941	0.062171
3.78	8.8832	0.43463	0.066534	0.058938
3.83	8.5973	0.44135	0.063774	0.054981
3.88	8.3213	0.42533	0.060813	0.057544
3.93	8.0566	0.43214	0.057989	0.054089
3.98	7.7871	0.43216	0.057198	0.050574
4.02	7.5307	0.43425	0.055196	0.048436
4.07	7.3226	0.44478	0.053362	0.046144
4.12	7.1308	0.44077	0.052205	0.042934
4.17	6.9277	0.45492	0.049583	0.042064
4.22	6.7649	0.46633	0.050709	0.036349
4.27	6.6022	0.48348	0.049849	0.030133
4.32	6.4895	0.48457	0.047841	0.032862
4.37	6.3622	0.49636	0.04941	0.028478
4.42	6.264	0.50409	0.047998	0.025677
4.47	6.1867	0.52438	0.045709	0.018718
4.52	6.1819	0.53786	0.047594	0.016631
4.56	6.161	0.54152	0.048741	0.01622
4.61	6.1562	0.54985	0.048162	0.013762
4.66	6.1497	0.5546	0.048135	0.01409
4.71	6.1658	0.56099	0.050697	0.012158
4.76	6.2125	0.56341	0.051125	0.007957
4.81	6.2656	0.55194	0.051297	0.0113
4.86	6.3172	0.55813	0.050377	0.0093633
4.91	6.3719	0.56744	0.051309	0.0081723
4.96	6.5072	0.57135	0.052597	0.0070954
5.01	6.6054	0.59152	0.053495	0.0039753
5.06	6.7569	0.60725	0.055286	0.0029118
5.1	6.9196	0.62607	0.058605	0.00080282
5.15	7.1066	0.64146	0.062196	-0.00071018
5.2	7.3017	0.66526	0.066281	0.00028128
5.25	7.5242	0.67676	0.06951	0.0006501
5.3	7.7565	0.69526	0.072677	-0.00076521
5.35	8.0292	0.72183	0.076716	-0.0021138
5.4	8.2583	0.74542	0.084148	-0.0024074
5.45	8.5457	0.77517	0.089865	-0.0017572
5.5	8.867	0.80991	0.095981	-0.002012
5.55	9.1884	0.84654	0.10542	-0.0037558
5.6	9.5099	0.87636	0.11146	-0.0048633
5.64	9.867	0.90339	0.12325	-0.0027143
5.69	10.168	0.94199	0.13108	-0.0021645
5.74	10.544	0.98358	0.14177	-0.0055657
5.79	10.879	1.0149	0.1533	-0.0027823
5.84	11.238	1.0468	0.1669	-0.0032186
5.89	11.601	1.0648	0.17664	-0.0012856
5.94	11.985	1.0978	0.18743	-0.0019413
5.99	12.407	1.1305	0.19788	-0.0049871
6.04	12.762	1.1492	0.21146	-0.0032831
6.09	13.195	1.1794	0.22336	-0.0023867
6.14	13.591	1.2057	0.23532	-0.001608
6.18	14.034	1.2397	0.24871	-0.0057488
6.23	14.418	1.2738	0.26649	-0.0039393
