% Time() Angle(deg) Cn Ct Cm
0	8.9122	0.77429	0.09507	0.003637
0.05	9.3112	0.80341	0.10438	0.0060316
0.1	9.6731	0.85274	0.11553	0.0024071
0.15	10.061	0.87938	0.12658	0.0070284
0.2	10.42	0.91323	0.13546	0.0033398
0.25	10.762	0.94863	0.14789	0.0053934
0.29	11.131	0.97894	0.15951	0.0066347
0.34	11.479	0.99253	0.16999	0.0087857
0.39	11.808	1.0328	0.18289	0.0080563
0.44	12.133	1.0562	0.19315	0.0091761
0.49	12.41	1.0796	0.20517	0.011707
0.54	12.72	1.1076	0.21444	0.0098854
0.59	13.008	1.1282	0.22751	0.015069
0.64	13.287	1.1511	0.23807	0.014367
0.69	13.522	1.1779	0.24856	0.012836
0.74	13.771	1.1908	0.25815	0.01559
0.79	14.002	1.21	0.26582	0.012166
0.83	14.197	1.2253	0.27423	0.013648
0.88	14.386	1.2318	0.28593	0.017324
0.93	14.585	1.2408	0.28908	0.016783
0.98	14.725	1.2554	0.2982	0.016945
1.03	14.877	1.2561	0.30156	0.018014
1.08	14.958	1.2672	0.30798	0.019227
1.13	15.061	1.2603	0.31253	0.021546
1.18	15.151	1.2546	0.31613	0.022417
1.23	15.206	1.2563	0.31569	0.020872
1.28	15.242	1.2549	0.31983	0.022756
1.33	15.266	1.2451	0.32111	0.026187
1.37	15.266	1.2441	0.31688	0.022767
1.42	15.29	1.2537	0.31921	0.02316
1.47	15.242	1.2455	0.31768	0.023268
1.52	15.264	1.2352	0.31745	0.026624
1.57	15.232	1.2338	0.3146	0.02229
1.62	15.21	1.2216	0.31098	0.022473
1.67	15.155	1.1987	0.30792	0.026823
1.72	15.042	1.1851	0.30124	0.025182
1.77	14.94	1.1656	0.29758	0.026225
1.82	14.801	1.1469	0.28667	0.024781
1.87	14.632	1.1334	0.2817	0.027204
1.91	14.443	1.1148	0.27283	0.027686
1.96	14.241	1.1062	0.26724	0.02784
2.01	14.032	1.0809	0.25851	0.028089
2.06	13.8	1.0656	0.25054	0.030579
2.11	13.553	1.0312	0.2441	0.038796
2.16	13.312	1.0069	0.23486	0.040386
2.21	13.048	0.99792	0.22772	0.036562
2.26	12.751	0.96487	0.21944	0.043261
2.31	12.442	0.94577	0.20809	0.042109
2.36	12.117	0.91054	0.20081	0.046967
2.41	11.789	0.89136	0.1897	0.045117
2.45	11.437	0.87881	0.17934	0.04299
2.5	11.082	0.84659	0.17225	0.043687
2.55	10.753	0.83696	0.1629	0.044537
2.6	10.412	0.80967	0.15452	0.04247
2.65	10.085	0.78973	0.14517	0.044392
2.7	9.7054	0.77651	0.13763	0.043752
2.75	9.3709	0.74735	0.12853	0.041282
2.8	9.0107	0.73937	0.12043	0.040053
2.85	8.6329	0.70627	0.11575	0.03978
2.9	8.2277	0.68739	0.10721	0.040243
2.95	7.8549	0.66229	0.099597	0.038799
2.99	7.4613	0.6571	0.093079	0.032717
3.04	7.0599	0.6272	0.084389	0.033489
3.09	6.6763	0.60348	0.07731	0.027715
3.14	6.3155	0.57018	0.069608	0.030757
3.19	5.9292	0.55523	0.062109	0.027995
3.24	5.5753	0.52408	0.055329	0.025313
3.29	5.1653	0.49874	0.049154	0.023359
3.34	4.8151	0.46115	0.042451	0.02327
3.39	4.4843	0.43782	0.038176	0.021938
3.44	4.0897	0.41395	0.030306	0.01788
3.49	3.7738	0.37767	0.025597	0.018357
3.53	3.4374	0.34232	0.021558	0.019066
3.58	3.1189	0.32921	0.018064	0.013866
3.63	2.8101	0.29584	0.013606	0.013957
3.68	2.5224	0.26539	0.010009	0.015378
3.73	2.227	0.24683	0.0082025	0.012615
3.78	1.9844	0.21309	0.0056288	0.012625
3.83	1.7085	0.19038	0.0020582	0.012053
3.88	1.4567	0.17325	0.0013768	0.0082037
3.93	1.256	0.14874	0.00054986	0.0081825
3.98	1.065	0.12547	-0.00065476	0.0090849
4.02	0.83595	0.11684	-0.0023759	0.006754
4.07	0.66427	0.088879	-0.0025268	0.0076002
4.12	0.48633	0.076631	-0.0039943	0.0056121
4.17	0.40057	0.065575	-0.0038203	0.0060559
4.22	0.28467	0.054622	-0.0053758	0.0044147
4.27	0.13551	0.036239	-0.0037112	0.0061459
4.32	0.057776	0.01836	-0.0051599	0.0062912
4.37	0.0022697	0.013832	-0.0060718	0.0038451
4.42	-0.06274	0.021096	-0.0065048	0.00090029
4.47	-0.096032	0.014576	-0.0049506	-0.00030057
4.52	-0.10872	0.0086026	-0.0058371	0.0015376
4.56	-0.12298	-0.0092197	-0.0050377	0.0051191
4.61	-0.088106	-0.0054138	-0.0037325	0.0021271
4.66	-0.11981	-0.0064294	-0.0053615	0.0015014
4.71	-0.072252	-0.006926	-0.0059399	0.0025932
4.76	-0.080179	-0.012375	-0.0056743	0.0039427
4.81	-0.019929	-0.0058319	-0.0054491	-7.5061e-05
4.86	0.056191	-0.0081383	-0.0046077	0.0017816
4.91	0.14502	0.0072101	-0.0055955	-0.0010757
4.96	0.28309	0.014638	-0.0074411	-0.0030482
5.01	0.41168	0.033827	-0.0061512	-0.0020388
5.06	0.58641	0.050281	-0.0031494	-0.0059878
5.1	0.79302	0.064588	-0.0055829	-0.0028109
5.15	1.022	0.076033	-0.0046375	-0.0022811
5.2	1.307	0.10411	-0.005023	-0.0041883
5.25	1.5507	0.1194	-0.0048042	-0.0041369
5.3	1.8344	0.15556	-0.0037921	-0.0069758
5.35	2.1041	0.1543	-0.0020463	-0.00072206
5.4	2.3835	0.19622	-0.00053289	-0.002564
5.45	2.6695	0.21337	0.00021228	-0.0032142
5.5	2.9621	0.24658	0.0028465	-0.0041518
5.55	3.2613	0.26766	0.0051288	-0.0037921
5.6	3.5816	0.28941	0.0060918	7.7926e-05
5.64	3.9357	0.33268	0.0085032	-0.0011735
5.69	4.2533	0.35801	0.01386	0.0010067
5.74	4.6368	0.40323	0.017079	-0.0034664
5.79	4.9998	0.42328	0.021925	-0.00045875
5.84	5.3936	0.46084	0.025408	-0.0023452
5.89	5.8069	0.49189	0.031626	-0.0015436
5.94	6.1835	0.5238	0.036953	0.00071824
5.99	6.5748	0.56515	0.043902	-0.0029799
6.04	6.9341	0.59723	0.050881	-0.00096995
6.09	7.2936	0.63863	0.058104	0.0002565
6.14	7.6839	0.65632	0.065562	0.003761
6.18	8.0711	0.69244	0.073153	0.002408
6.23	8.4375	0.73823	0.083209	0.00072501
