% Time() Angle(deg) Cn Ct Cm
0	8.4294	0.77711	0.10208	0.011657
0.05	8.8153	0.80927	0.11432	0.011908
0.1	9.2191	0.84103	0.12308	0.010807
0.15	9.5535	0.87403	0.13342	0.012205
0.2	9.9591	0.90769	0.1468	0.011602
0.25	10.345	0.93911	0.15937	0.016366
0.29	10.688	0.96894	0.17066	0.015661
0.34	11.055	0.99793	0.18278	0.016065
0.39	11.461	1.0131	0.19306	0.018931
0.44	11.807	1.0466	0.20816	0.021021
0.49	12.19	1.0673	0.21807	0.023234
0.54	12.515	1.0823	0.22724	0.023069
0.59	12.825	1.1094	0.23524	0.023208
0.64	13.118	1.1212	0.24837	0.026189
0.69	13.436	1.1401	0.25152	0.02389
0.74	13.745	1.1609	0.25963	0.020604
0.79	14.016	1.1714	0.26805	0.022602
0.83	14.283	1.1803	0.27698	0.023001
0.88	14.53	1.1751	0.27701	0.022531
0.93	14.758	1.1782	0.27786	0.019485
0.98	14.963	1.1999	0.28477	0.0186
1.03	15.176	1.191	0.28825	0.017952
1.08	15.356	1.1945	0.28409	0.010462
1.13	15.545	1.192	0.27606	0.0043321
1.18	15.715	1.1865	0.2612	-0.013996
1.23	15.823	1.1822	0.24224	-0.031391
1.28	15.976	1.1432	0.22544	-0.03595
1.33	16.071	1.0955	0.2187	-0.026319
1.37	16.155	1.0677	0.21639	-0.022704
1.42	16.239	1.0451	0.21642	-0.0149
1.47	16.306	1.0251	0.21086	-0.014728
1.52	16.337	1.0498	0.21124	-0.020976
1.57	16.355	1.026	0.20396	-0.02398
1.62	16.382	1.029	0.21354	-0.013184
1.67	16.342	1.0209	0.21123	-0.014939
1.72	16.355	1.0126	0.21328	-0.011299
1.77	16.305	0.99423	0.20893	-0.0088347
1.82	16.256	0.99245	0.20867	-0.0075563
1.87	16.147	1.0084	0.20505	-0.012375
1.91	16.026	0.99142	0.21174	-0.0022872
1.96	15.863	0.98351	0.20896	-0.002223
2.01	15.703	0.9817	0.2103	0.0012213
2.06	15.526	0.9804	0.21108	0.0030272
2.11	15.332	0.98932	0.21438	0.0076805
2.16	15.158	1.0023	0.2168	0.0055465
2.21	14.919	1.0031	0.21853	0.0068903
2.26	14.64	1.0186	0.21796	0.0091292
2.31	14.334	1.0307	0.21949	0.01043
2.36	14.084	1.0378	0.22501	0.016952
2.41	13.8	1.0263	0.22287	0.02666
2.45	13.489	1.052	0.22413	0.022519
2.5	13.197	1.045	0.22249	0.025871
2.55	12.849	1.0458	0.22052	0.029217
2.6	12.539	1.0453	0.21559	0.02796
2.65	12.187	1.0348	0.21109	0.026572
2.7	11.812	1.0214	0.20319	0.024414
2.75	11.464	0.99852	0.19127	0.023931
2.8	11.097	0.97434	0.17902	0.022489
2.85	10.73	0.9508	0.16896	0.020963
2.9	10.336	0.9309	0.1594	0.017669
2.95	9.9736	0.91185	0.14954	0.014263
2.99	9.5713	0.87178	0.13846	0.01689
3.04	9.2159	0.84147	0.12582	0.015283
3.09	8.8299	0.80815	0.11537	0.013802
3.14	8.3923	0.78276	0.10815	0.013649
3.19	8.0485	0.74204	0.1004	0.016987
3.24	7.6307	0.71619	0.089204	0.011606
3.29	7.2307	0.67761	0.078197	0.0080663
3.34	6.8487	0.64637	0.070231	0.0083917
3.39	6.4943	0.59881	0.061293	0.011421
3.44	6.0918	0.56899	0.053742	0.010869
3.49	5.7603	0.53458	0.047113	0.011274
3.53	5.3775	0.50067	0.040158	0.0084114
3.58	4.9902	0.46478	0.032417	0.008812
3.63	4.6818	0.44032	0.029014	0.0057574
3.68	4.3383	0.4115	0.025396	0.0075714
3.73	4.0175	0.37553	0.017787	0.0061994
3.78	3.6777	0.34404	0.014872	0.0024935
3.83	3.375	0.31594	0.011977	0.0032408
3.88	3.0997	0.28879	0.0073511	0.0035633
3.93	2.7846	0.25591	0.0068205	0.0066296
3.98	2.5432	0.23675	0.0030554	0.0027868
4.03	2.286	0.21294	0.0025431	0.00084075
4.07	2.0753	0.18512	-0.0001596	0.0032448
4.12	1.86	0.15977	-0.0013307	0.0036016
4.17	1.6367	0.13928	-0.0023688	0.0032112
4.22	1.4487	0.12337	-0.0030694	0.0024916
4.27	1.2894	0.10693	-0.0050397	0.00082771
4.32	1.1669	0.076747	-0.0036173	0.0046043
4.37	1.0045	0.076953	-0.0050242	0.0027083
4.42	0.88366	0.063126	-0.0051218	0.0010859
4.47	0.80892	0.055986	-0.0053176	0.00052428
4.52	0.71354	0.044542	-0.0068311	0.00059025
4.57	0.65791	0.0384	-0.0060021	0.0019609
4.61	0.59912	0.039863	-0.0062221	-0.0010577
4.66	0.59435	0.029677	-0.0052172	-0.00095857
4.71	0.53557	0.019143	-0.0071604	0.0020734
4.76	0.54828	0.029559	-0.0053961	-0.00054687
4.81	0.54669	0.024863	-0.006734	0.0014992
4.86	0.56416	0.025106	-0.0062969	-0.00050681
4.91	0.5594	0.019797	-0.006585	0.00065323
4.96	0.63408	0.024665	-0.0057427	0.0029208
5.01	0.71831	0.029881	-0.0039125	0.003762
5.06	0.7962	0.050797	-0.0061413	-0.00031332
5.11	0.96955	0.071836	-0.0069662	-0.0013453
5.15	1.1398	0.087857	-0.0045783	-0.0006276
5.2	1.2799	0.089674	-0.0035892	0.00091558
5.25	1.5093	0.10127	-0.0036581	0.004212
5.3	1.7037	0.13292	-0.0021058	-0.00023076
5.35	1.9541	0.15315	-0.0017498	0.0018136
5.4	2.1855	0.17974	-0.0010555	-6.0511e-05
5.45	2.3946	0.20027	0.00039317	0.0023854
5.5	2.6854	0.22514	0.0015733	0.0040796
5.55	2.9701	0.26094	0.0057238	0.0055601
5.6	3.2677	0.29137	0.0055474	0.0039533
5.65	3.5976	0.3222	0.011893	0.0040645
5.69	3.9405	0.34657	0.015277	0.0044614
5.74	4.2645	0.38656	0.019577	0.0040495
5.79	4.6224	0.41689	0.025136	0.0048119
5.84	4.95	0.45147	0.028939	0.0056572
5.89	5.31	0.50103	0.037393	0.0034049
5.94	5.6621	0.52756	0.042845	0.0048299
5.99	6.0258	0.57164	0.049285	0.0044236
6.04	6.3864	0.58914	0.057332	0.0081384
6.09	6.8133	0.62079	0.064285	0.0099826
6.14	7.2243	0.66086	0.074909	0.010089
6.19	7.5742	0.69638	0.082217	0.010204
6.23	7.9937	0.74428	0.091274	0.0077778
