% Time() Angle(deg) Cn Ct Cm
0	-1.8802	-0.23168	0.0014181	-0.0027806
1.64	-1.1976	-0.1605	-0.0025527	-0.0016503
3.28	-0.77035	-0.12407	-0.0045605	-0.00041347
4.92	-0.26535	-0.069653	-0.0071128	-0.0017972
6.56	0.23822	-0.034754	-0.0071164	0.00069827
8.2	0.7874	0.011386	-0.0071088	0.0023729
9.84	1.2099	0.056911	-0.0071307	0.0019547
11.48	1.6783	0.11098	-0.0045517	0.0030418
13.12	2.1611	0.15459	-0.001913	0.0036743
14.76	2.6116	0.19967	0.0019275	0.0064615
16.4	3.1076	0.25147	0.0051769	0.0058554
18.03	3.556	0.29078	0.0096718	0.0077422
19.67	4.0958	0.33949	0.014325	0.0077767
21.31	4.5421	0.38523	0.019768	0.008499
22.95	5.0488	0.42514	0.025485	0.0090865
24.59	5.4778	0.47652	0.034619	0.010889
26.23	6.0435	0.52928	0.043314	0.012236
27.87	6.4858	0.56894	0.049704	0.010849
29.51	7.0034	0.62313	0.060892	0.011656
31.15	7.444	0.66419	0.068386	0.0099903
32.79	7.9293	0.72106	0.082069	0.010743
34.43	8.3683	0.7564	0.091109	0.010067
36.07	8.8065	0.79666	0.10091	0.0096492
37.71	9.3345	0.8354	0.11368	0.012548
39.35	9.8013	0.86864	0.12559	0.014083
40.99	10.282	0.89942	0.13753	0.018175
42.63	10.748	0.92933	0.14924	0.019317
44.27	11.227	0.97091	0.16585	0.022894
45.91	11.706	0.99938	0.17933	0.025539
47.55	12.169	1.0102	0.18579	0.025902
49.19	12.647	1.0313	0.19542	0.026405
50.83	13.124	1.0511	0.20559	0.026942
52.46	13.571	1.0629	0.21164	0.025936
54.1	14.061	1.0808	0.2203	0.02679
55.74	14.507	1.0849	0.22018	0.022486
57.38	14.997	1.101	0.2206	0.014728
59.02	15.456	1.1048	0.2267	0.014187
60.66	15.915	1.1303	0.23017	0.011659
62.3	16.404	1.048	0.18714	-0.018417
63.94	16.847	1.0851	0.20842	-0.011256
65.58	17.32	0.64929	-0.062759	-0.088388
67.22	17.793	0.64421	-0.06325	-0.085757
68.86	18.265	0.73562	-0.024514	-0.081365
70.5	18.722	0.91797	0.036061	-0.079736
72.14	19.194	0.92039	0.030663	-0.084092
73.78	19.666	0.91108	0.030435	-0.079787
75.42	20.122	0.8621	0.017461	-0.077097
77.06	20.594	0.80339	0.00099549	-0.07239
78.7	21.065	0.8094	-0.0016814	-0.075944
80.34	21.521	0.80449	0.0016145	-0.073359
81.98	21.977	0.80694	-0.0032971	-0.075643
83.62	22.449	0.81479	-0.014786	-0.07935
85.26	22.905	0.80699	-0.017945	-0.078638
86.89	23.391	0.74983	-0.035595	-0.079558
88.53	23.847	0.77296	-0.034705	-0.082966
90.17	24.304	0.75403	-0.062122	-0.09012
91.81	24.79	0.82675	-0.032255	-0.089815
93.45	25.232	0.78252	-0.060328	-0.095512
95.09	25.719	0.86575	-0.052472	-0.10895
96.73	26.176	0.88259	-0.058513	-0.11541
98.37	26.648	0.87192	-0.058576	-0.11258
100.01	27.106	0.93249	-0.05705	-0.12527
101.65	27.564	0.94072	-0.056521	-0.12656
103.29	28.038	0.9346	-0.05555	-0.12522
104.93	28.052	0.93122	-0.055671	-0.12519
106.57	27.52	0.90505	-0.05612	-0.11824
108.21	26.973	0.90417	-0.054594	-0.11763
109.85	26.545	0.90007	-0.054822	-0.11714
111.49	26.043	0.85651	-0.050867	-0.10265
113.13	25.557	0.82289	-0.046703	-0.097663
114.77	25.1	0.79855	-0.0493	-0.093844
116.41	24.643	0.77155	-0.054774	-0.090473
118.05	24.142	0.74246	-0.062019	-0.088216
119.69	23.685	0.7374	-0.061394	-0.086053
121.33	23.199	0.757	-0.035147	-0.082955
122.96	22.684	0.7635	-0.030678	-0.081533
124.6	22.257	0.76205	-0.032556	-0.081988
126.24	21.786	0.7765	-0.02661	-0.083322
127.88	21.344	0.78231	-0.018074	-0.076983
129.52	20.873	0.74235	-0.02923	-0.076526
131.16	20.402	0.773	-0.018994	-0.076196
132.8	19.931	0.79367	-0.0093552	-0.076209
134.44	19.459	0.80939	0.0048922	-0.073292
136.08	19.002	0.81292	0.0048636	-0.072876
137.72	18.53	0.8402	0.02026	-0.068462
139.36	18.058	0.86413	0.023167	-0.072278
141	17.586	0.84459	0.027026	-0.06635
142.64	17.128	0.84278	0.029939	-0.063539
144.28	16.655	0.86696	0.042844	-0.059409
145.92	16.226	0.85465	0.043706	-0.057477
147.56	15.738	0.86485	0.059656	-0.04561
149.2	15.278	0.92531	0.058834	-0.064116
150.84	14.804	0.87807	0.038893	-0.075194
152.48	14.344	0.88504	0.04108	-0.073786
154.12	13.868	0.88688	0.042473	-0.075657
155.76	13.377	0.84708	0.038517	-0.070434
157.39	12.96	0.96092	0.14382	-0.0021012
159.03	12.438	1.0264	0.1916	0.026043
160.67	11.945	1.0008	0.17964	0.023564
162.31	11.482	0.97356	0.16827	0.022697
163.95	11.048	0.94975	0.15826	0.022129
165.59	10.598	0.92061	0.14539	0.018354
167.23	10.102	0.89828	0.13607	0.017632
168.87	9.6357	0.8523	0.11989	0.014126
170.51	9.1536	0.82127	0.10792	0.010464
172.15	8.6555	0.78771	0.098538	0.011176
173.79	8.1716	0.74437	0.087023	0.011137
175.43	7.7626	0.7044	0.076774	0.011365
177.07	7.2314	0.64546	0.065814	0.012241
178.71	6.8056	0.60065	0.05532	0.01233
180.35	6.1198	0.53471	0.043604	0.011395
181.99	5.7379	0.49716	0.036444	0.01153
183.63	5.2941	0.4566	0.030293	0.01083
185.27	4.8493	0.41572	0.023967	0.010688
186.91	4.373	0.3752	0.019079	0.0095361
188.55	3.8801	0.32229	0.011688	0.0069
190.19	3.4169	0.27889	0.0078249	0.0071944
191.82	2.9682	0.23707	0.0043688	0.0068754
193.46	2.4874	0.18358	-0.001739	0.0057133
195.1	1.9588	0.13623	-0.0045124	0.0042829
196.74	1.5379	0.093373	-0.0054333	0.0030813
198.38	1.0223	0.050572	-0.0066246	0.0024486
200.02	0.53655	-0.00037477	-0.0079997	0.0021209
201.66	0.018084	-0.046264	-0.0064016	0.0010988
203.3	-0.40724	-0.088653	-0.0060986	-0.0013776
204.94	-0.94428	-0.13734	-0.0046175	-0.00065053
206.58	-1.3402	-0.18902	-0.0020827	-0.0012375
208.22	-1.8961	-0.22047	0.00076717	-0.00092481
