% Time() Angle(deg) Cn Ct Cm
0	-1.8802	-0.23624	0.002392	-0.0024953
2.17	-1.3878	-0.19478	-0.00051826	-0.0021213
4.34	-0.77035	-0.12997	-0.0032725	0.0012295
6.51	-0.21808	-0.087379	-0.0050605	0.00034023
8.68	0.22251	-0.045388	-0.0058228	0.0013212
10.85	0.70905	0.0087746	-0.0052482	0.0019998
13.02	1.2568	0.053043	-0.0058209	0.0029098
15.19	1.7251	0.098081	-0.0045041	0.0035093
17.36	2.1611	0.14254	-0.0020001	0.0037149
19.53	2.7202	0.19281	-0.00051037	0.0039498
21.7	3.154	0.24316	0.0053912	0.0063406
23.87	3.6332	0.29307	0.0099987	0.0068867
26.04	4.065	0.33576	0.015017	0.0079688
28.21	4.6036	0.38183	0.019475	0.0086384
30.38	5.0488	0.42838	0.026817	0.010316
32.55	5.539	0.47365	0.033462	0.010404
34.71	6.0129	0.51512	0.039465	0.010764
36.88	6.4401	0.5712	0.050726	0.011519
39.05	6.9578	0.61171	0.05948	0.013303
41.22	7.4136	0.66259	0.068893	0.011833
43.39	7.899	0.71108	0.08044	0.013378
45.56	8.3834	0.75989	0.092714	0.013759
47.73	8.8367	0.80208	0.1024	0.012553
49.9	9.2742	0.84136	0.11497	0.014948
52.07	9.711	0.88086	0.12596	0.015494
54.24	10.222	0.92054	0.14031	0.017999
56.41	10.703	0.95806	0.15469	0.02087
58.58	11.122	0.98504	0.16587	0.021928
60.75	11.587	1.0133	0.17831	0.024032
62.92	12.095	1.0446	0.18941	0.024514
65.09	12.558	1.0745	0.20597	0.027084
67.26	13.005	1.0932	0.2148	0.027524
69.43	13.452	1.1089	0.22318	0.027354
71.6	13.957	1.1274	0.22687	0.024593
73.77	14.373	1.1059	0.21761	0.012466
75.94	14.804	1.137	0.23198	0.020257
78.11	15.293	1.1502	0.22558	0.010491
80.28	15.767	1.1521	0.22822	0.0073783
82.45	16.226	1.1319	0.21804	-0.0011237
84.62	16.714	1.1643	0.22789	-0.0034663
86.79	17.143	1.1656	0.22374	-0.011468
88.96	17.645	0.8029	0.089863	-0.050545
91.13	18.088	1.0012	0.1456	-0.048512
93.3	18.53	0.8992	0.11774	-0.047238
95.47	18.988	0.76063	-0.047359	-0.094777
97.64	19.474	0.74943	-0.052291	-0.098871
99.8	19.931	0.75757	-0.050198	-0.096452
101.97	20.402	0.83557	-0.00058591	-0.073649
104.14	20.873	0.83539	-0.0048859	-0.073009
106.31	21.33	0.83374	-0.014243	-0.076318
108.48	21.786	0.83061	-0.023236	-0.076553
110.65	22.257	0.80075	-0.039823	-0.082373
112.82	22.728	0.8197	-0.033676	-0.081161
114.99	23.199	0.75881	-0.04479	-0.076428
117.16	23.641	0.73378	-0.05157	-0.078882
119.33	24.112	0.76321	-0.051271	-0.086588
121.5	24.569	0.77004	-0.049947	-0.087181
123.67	25.041	0.81292	-0.054643	-0.096495
125.84	25.527	0.81368	-0.055949	-0.096672
128.01	25.984	0.84561	-0.063531	-0.113
130.18	26.442	0.85209	-0.050504	-0.10336
132.35	26.885	0.89216	-0.05497	-0.11324
134.52	27.372	0.93385	-0.054564	-0.12233
136.69	27.816	0.91967	-0.047534	-0.11619
138.86	27.875	0.97294	-0.052368	-0.12781
141.03	27.195	0.92893	-0.052584	-0.1215
143.2	26.604	0.87928	-0.058643	-0.11213
145.37	26.161	0.85928	-0.056102	-0.10695
147.54	25.689	0.83247	-0.057119	-0.10058
149.71	25.232	0.8218	-0.054646	-0.097966
151.88	24.746	0.76421	-0.050374	-0.086114
154.05	24.304	0.76042	-0.057382	-0.086797
156.22	23.847	0.73377	-0.054953	-0.079934
158.39	23.361	0.74939	-0.056172	-0.084079
160.56	22.905	0.71121	-0.055712	-0.076121
162.73	22.449	0.8246	-0.033737	-0.079294
164.9	21.977	0.82495	-0.031688	-0.078451
167.06	21.506	0.84465	-0.015269	-0.07791
169.23	21.035	0.85067	-0.009033	-0.075077
171.4	20.594	0.82158	-0.0092155	-0.07024
173.57	20.122	0.81637	-0.016672	-0.076131
175.74	19.636	0.81628	-0.0082514	-0.073525
177.91	19.179	0.82993	0.00075556	-0.074686
180.08	18.737	0.78876	-0.0071516	-0.071792
182.25	18.28	0.84963	0.011447	-0.073586
184.42	17.778	0.89396	0.037595	-0.069416
186.59	17.335	0.88354	0.043129	-0.064203
188.76	16.877	0.91707	0.05574	-0.059683
190.93	16.418	0.92566	0.062707	-0.05853
193.1	15.975	0.90437	0.040798	-0.066187
195.27	15.471	0.6813	-0.052589	-0.088408
197.44	14.997	0.98721	0.10927	-0.035484
199.61	14.581	0.96182	0.102	-0.036903
201.78	14.121	0.93366	0.084809	-0.043927
203.95	13.66	1.1108	0.2249	0.026438
206.12	13.213	1.1012	0.22002	0.029159
208.29	12.751	1.0805	0.2105	0.028146
210.46	12.259	1.0563	0.196	0.025994
212.63	11.826	1.0328	0.18482	0.024726
214.8	11.347	1.0053	0.17183	0.022292
216.97	10.883	0.97003	0.15914	0.020545
219.14	10.463	0.9355	0.14696	0.020303
221.31	9.9668	0.90137	0.13507	0.018749
223.48	9.5153	0.85809	0.11947	0.014593
225.65	9.0027	0.81955	0.10782	0.014732
227.82	8.4892	0.78338	0.098204	0.013722
229.99	8.0505	0.73021	0.083505	0.013181
232.15	7.5806	0.68015	0.073153	0.013438
234.32	7.0946	0.6417	0.064599	0.013207
236.49	6.6686	0.5893	0.055036	0.014241
238.66	6.1961	0.53625	0.044775	0.012372
240.83	5.7226	0.49484	0.037683	0.011897
243	5.2481	0.45078	0.030112	0.01171
245.17	4.7265	0.41302	0.024446	0.011562
247.34	4.3576	0.35748	0.017212	0.0097827
249.51	3.8801	0.30585	0.010424	0.0079025
251.68	3.3087	0.27026	0.007704	0.0076127
253.85	2.8598	0.21382	0.0030911	0.0068968
256.02	2.3321	0.17039	0.00028193	0.0060453
258.19	1.9432	0.12563	-0.0019314	0.0058559
260.36	1.413	0.076396	-0.0046038	0.0046185
262.53	0.86572	0.024703	-0.0056664	0.0043795
264.7	0.47379	-0.013593	-0.0052526	0.0038622
266.87	-0.060603	-0.068176	-0.003826	0.0028822
269.04	-0.56502	-0.11041	-0.0036867	0.001717
271.21	-1.0234	-0.14643	-0.0017133	0.0020223
273.38	-1.483	-0.20329	-0.00018786	-0.00027606
275.55	-1.912	-0.24773	0.0035533	-0.0013374
